# Matter power spectrum P(k) at redshift z=0
# for k=1.01776e-05 to 10.8586 h/Mpc,
# number of wavenumbers equal to 728
#    1:k (h/Mpc)              2:P (Mpc/h)^3        
       1.017762622183e-05       5.237970775990e+01 
       2.270599619585e-05       1.136200180546e+02 
       3.527608514283e-05       1.738157789669e+02 
       4.791988385778e-05       2.335909319429e+02 
       6.066988421975e-05       2.932993702229e+02 
       7.355935332593e-05       3.532053913082e+02 
       8.662261594150e-05       4.135342210359e+02 
       9.989534883415e-05       4.744926638210e+02 
       1.134148905905e-04       5.362796175886e+02 
       1.272205705424e-04       5.990923905646e+02 
       1.413540604450e-04       6.631310329833e+02 
       1.558597525164e-04       7.286016720975e+02 
       1.707851673344e-04       7.957193124077e+02 
       1.861813948374e-04       8.647103761885e+02 
       2.021035712214e-04       9.358151080670e+02 
       2.186113937793e-04       1.009289939147e+03 
       2.357696745644e-04       1.085409847811e+03 
       2.536489320239e-04       1.164470743693e+03 
       2.723260172576e-04       1.246791860369e+03 
       2.918847680560e-04       1.332718128687e+03 
       3.124166791059e-04       1.422622477754e+03 
       3.340215703985e-04       1.516907983871e+03 
       3.568082276376e-04       1.616009704074e+03 
       3.808949780657e-04       1.720396088031e+03 
       4.064101524856e-04       1.830569667941e+03 
       4.334923695260e-04       1.947066801662e+03 
       4.622905620153e-04       2.070456090664e+03 
       4.929636490547e-04       2.201335087794e+03 
       5.256797433982e-04       2.340324846149e+03 
       5.606147756581e-04       2.488061855992e+03 
       5.979504195942e-04       2.645186990541e+03 
       6.378712222315e-04       2.812331138349e+03 
       6.805608847774e-04       2.990097505583e+03 
       7.261977096468e-04       3.179040806413e+03 
       7.749493255645e-04       3.379644098841e+03 
       8.269669200523e-04       3.592294380382e+03 
       8.823793310846e-04       3.817258684080e+03 
       9.412874532796e-04       4.054662681267e+03 
       1.003759470115e-03       4.304474118433e+03 
       1.069827407121e-03       4.566492890878e+03 
       1.139485399650e-03       4.840349537484e+03 
       1.212689891188e-03       5.125512528023e+03 
       1.289361754710e-03       5.421304147043e+03 
       1.369390105154e-03       5.726895838275e+03 
       1.452637391706e-03       6.041401864625e+03 
       1.538945256643e-03       6.363870757898e+03 
       1.628140633441e-03       6.693301445752e+03 
       1.720041619037e-03       7.028682562227e+03 
       1.814462767214e-03       7.369015819620e+03 
       1.911219581325e-03       7.713334811740e+03 
       2.010132108911e-03       8.060719815054e+03 
       2.111027641521e-03       8.410307596390e+03 
       2.213742593189e-03       8.761298348386e+03 
       2.318123671520e-03       9.112958305150e+03 
       2.424028471503e-03       9.464620299478e+03 
       2.531325620865e-03       9.815682341453e+03 
       2.639894593864e-03       1.016560507982e+04 
       2.749625293107e-03       1.051390860974e+04 
       2.860417480214e-03       1.086016658058e+04 
       2.972180118218e-03       1.120400371881e+04 
       3.084830672812e-03       1.154509080336e+04 
       3.198294406405e-03       1.188313972428e+04 
       3.312503688439e-03       1.221790038287e+04 
       3.427397337294e-03       1.254915528994e+04 
       3.542920003058e-03       1.287671590704e+04 
       3.659021595992e-03       1.320042151168e+04 
       3.775656762429e-03       1.352013502175e+04 
       3.892784407700e-03       1.383573634432e+04 
       4.010367264318e-03       1.414713083316e+04 
       4.128371502794e-03       1.445423296731e+04 
       4.246766381999e-03       1.475697790625e+04 
       4.365523935796e-03       1.505530842322e+04 
       4.484618692657e-03       1.534918494796e+04 
       4.604027425075e-03       1.563856618944e+04 
       4.723728925759e-03       1.592338348402e+04 
       4.843703807817e-03       1.620373398779e+04 
       4.963934326354e-03       1.647952612968e+04 
       5.084404219170e-03       1.669352058534e+04 
       5.205098564436e-03       1.695804453560e+04 
       5.326003653474e-03       1.721799803800e+04 
       5.447106876962e-03       1.747342727186e+04 
       5.568396623055e-03       1.772433463870e+04 
       5.689862186089e-03       1.797018841884e+04 
       5.811493684704e-03       1.821210030969e+04 
       5.933281988318e-03       1.844955153054e+04 
       6.055218651046e-03       1.868257003896e+04 
       6.177295852232e-03       1.891108439606e+04 
       6.299506342883e-03       1.913543819504e+04 
       6.421843397352e-03       1.935548399038e+04 
       6.544300769712e-03       1.957101757085e+04 
       6.666872654316e-03       1.978239625193e+04 
       6.789553650111e-03       1.998972180349e+04 
       6.912338728289e-03       2.019280367312e+04 
       7.035223202952e-03       2.039198294996e+04 
       7.158202704464e-03       2.058675633113e+04 
       7.281273155227e-03       2.077771233128e+04 
       7.404430747627e-03       2.096484480836e+04 
       7.527671923940e-03       2.114804860233e+04 
       7.650993358003e-03       2.132690986699e+04 
       7.774391938469e-03       2.150184381537e+04 
       7.897864753509e-03       2.167327664352e+04 
       8.021409076804e-03       2.184059270747e+04 
       8.145022354722e-03       2.200441733866e+04 
       8.268702194548e-03       2.216524742112e+04 
       8.392446353698e-03       2.232154979975e+04 
       8.516252729795e-03       2.247426238114e+04 
       8.640119351552e-03       2.262347319150e+04 
       8.764044370380e-03       2.276895317824e+04 
       8.888026052660e-03       2.291010493683e+04 
       9.012062772612e-03       2.304869758302e+04 
       9.136153005724e-03       2.318383494194e+04 
       9.260295322681e-03       2.331636639337e+04 
       9.384488383755e-03       2.344477428274e+04 
       9.508730933617e-03       2.356979500768e+04 
       9.633021796538e-03       2.369155822103e+04 
       9.757359871947e-03       2.380901866661e+04 
       9.881744130310e-03       2.392490065754e+04 
       1.000617360931e-02       2.403751333291e+04 
       1.013064741032e-02       2.414601221200e+04 
       1.025516469508e-02       2.425246150654e+04 
       1.037972468271e-02       2.435465156387e+04 
       1.050432664681e-02       2.445460674259e+04 
       1.062896991285e-02       2.455200726891e+04 
       1.075365385574e-02       2.464612691522e+04 
       1.087837789751e-02       2.473605470431e+04 
       1.100314150524e-02       2.482419353592e+04 
       1.112794418904e-02       2.490979494725e+04 
       1.125278550026e-02       2.499216154427e+04 
       1.137766502974e-02       2.507114614933e+04 
       1.150258240626e-02       2.514902326314e+04 
       1.162753729503e-02       2.522383589377e+04 
       1.175252939633e-02       2.529479792358e+04 
       1.187755844422e-02       2.536427526387e+04 
       1.200262420535e-02       2.543031382274e+04 
       1.212772647786e-02       2.549407183083e+04 
       1.225286509034e-02       2.555471106183e+04 
       1.237803990087e-02       2.561339069560e+04 
       1.250325079614e-02       2.566996687724e+04 
       1.262849769063e-02       2.572284908142e+04 
       1.275378052582e-02       2.577364042316e+04 
       1.287909926952e-02       2.582371818023e+04 
       1.300445391520e-02       2.587041877909e+04 
       1.312984448136e-02       2.591454884833e+04 
       1.325527101102e-02       2.595641316416e+04 
       1.338073357118e-02       2.599470814673e+04 
       1.350623225238e-02       2.603208005626e+04 
       1.363176716822e-02       2.606779771425e+04 
       1.375733845503e-02       2.610098983365e+04 
       1.388294627146e-02       2.613209312911e+04 
       1.400859079823e-02       2.616043218691e+04 
       1.413427223778e-02       2.618580217590e+04 
       1.425999081403e-02       2.621166152274e+04 
       1.438574677219e-02       2.623390533155e+04 
       1.451154037852e-02       2.625439295891e+04 
       1.463737192019e-02       2.627249150620e+04 
       1.476324170512e-02       2.628883350276e+04 
       1.488915006186e-02       2.630283857830e+04 
       1.501509733954e-02       2.631563536533e+04 
       1.514108390773e-02       2.632515827477e+04 
       1.526711015644e-02       2.633450414278e+04 
       1.539317649608e-02       2.634079904698e+04 
       1.551928335748e-02       2.634586228003e+04 
       1.564543119185e-02       2.634934028310e+04 
       1.577162047089e-02       2.635124328695e+04 
       1.589785168677e-02       2.635173926880e+04 
       1.602412535228e-02       2.634884128441e+04 
       1.615044200085e-02       2.634501875927e+04 
       1.627680218673e-02       2.633995986734e+04 
       1.640320648507e-02       2.633314030769e+04 
       1.652965549208e-02       2.632452867403e+04 
       1.665614982521e-02       2.631400649301e+04 
       1.678269012333e-02       2.630225488070e+04 
       1.690927704689e-02       2.628897917415e+04 
       1.703591127819e-02       2.627414451373e+04 
       1.716259352159e-02       2.625891517431e+04 
       1.728932450374e-02       2.623993262650e+04 
       1.741610497386e-02       2.622058603871e+04 
       1.754293570405e-02       2.620025300161e+04 
       1.766981748952e-02       2.617764535031e+04 
       1.779675114898e-02       2.615459764006e+04 
       1.792373752492e-02       2.612964987833e+04 
       1.805077748398e-02       2.610297301568e+04 
       1.817787191730e-02       2.607576645699e+04 
       1.830502174092e-02       2.604667222244e+04 
       1.843222789617e-02       2.601645175635e+04 
       1.855949135006e-02       2.598551066993e+04 
       1.868681309576e-02       2.595284682478e+04 
       1.881419415301e-02       2.591886304480e+04 
       1.894163556861e-02       2.588368278023e+04 
       1.906913841689e-02       2.584720534374e+04 
       1.919670380023e-02       2.580901616167e+04 
       1.932433284956e-02       2.577036390208e+04 
       1.945202672494e-02       2.573085516324e+04 
       1.957978661606e-02       2.568966053457e+04 
       1.970761374289e-02       2.564769185110e+04 
       1.983550935622e-02       2.560474126578e+04 
       1.996347473831e-02       2.556122277000e+04 
       2.009151120355e-02       2.551564150735e+04 
       2.021962009907e-02       2.546932468866e+04 
       2.034780280547e-02       2.542201865218e+04 
       2.047606073751e-02       2.537445881822e+04 
       2.060439534485e-02       2.532534876288e+04 
       2.073280811277e-02       2.527547693117e+04 
       2.086130056300e-02       2.522427371214e+04 
       2.098987425448e-02       2.517254040241e+04 
       2.111853078422e-02       2.511936768363e+04 
       2.124727178813e-02       2.506570004999e+04 
       2.137609894190e-02       2.501125306678e+04 
       2.150501396195e-02       2.495599108304e+04 
       2.163401860629e-02       2.489989573814e+04 
       2.176311467559e-02       2.484298859267e+04 
       2.189230401408e-02       2.478524941890e+04 
       2.202158851064e-02       2.472753176876e+04 
       2.215097009984e-02       2.466763801119e+04 
       2.228045076304e-02       2.460833293862e+04 
       2.241003252953e-02       2.454705096556e+04 
       2.253971747764e-02       2.448569606884e+04 
       2.266950773604e-02       2.442364894174e+04 
       2.279940548487e-02       2.436150023804e+04 
       2.292941295712e-02       2.429761280870e+04 
       2.305953243985e-02       2.423352158804e+04 
       2.318976627563e-02       2.416899261047e+04 
       2.332011686393e-02       2.410368002061e+04 
       2.345058666253e-02       2.403785088143e+04 
       2.358117818904e-02       2.397138586598e+04 
       2.371189402246e-02       2.390488051014e+04 
       2.384273680475e-02       2.383694115105e+04 
       2.397370924251e-02       2.376891227789e+04 
       2.410481410862e-02       2.370024907572e+04 
       2.423605424406e-02       2.363117463804e+04 
       2.436743255969e-02       2.356159622612e+04 
       2.449895203811e-02       2.349180730775e+04 
       2.463061573564e-02       2.342091835513e+04 
       2.476242678429e-02       2.334986645734e+04 
       2.489438839382e-02       2.327841198294e+04 
       2.502650385392e-02       2.320675432877e+04 
       2.515877653636e-02       2.313450306604e+04 
       2.529120989734e-02       2.306165454804e+04 
       2.542380747979e-02       2.298832782715e+04 
       2.555657291588e-02       2.291496407040e+04 
       2.568950992951e-02       2.284123837880e+04 
       2.582262233895e-02       2.276663512429e+04 
       2.595591405954e-02       2.269219080011e+04 
       2.608938910650e-02       2.261728136647e+04 
       2.622305159786e-02       2.254245215240e+04 
       2.635690575744e-02       2.246677663779e+04 
       2.649095591801e-02       2.239100277153e+04 
       2.662520652450e-02       2.231460263327e+04 
       2.675966213736e-02       2.223824547569e+04 
       2.689432743605e-02       2.216171287135e+04 
       2.702920722264e-02       2.208456522053e+04 
       2.716430642557e-02       2.200752191924e+04 
       2.729963010350e-02       2.193016283258e+04 
       2.743518344938e-02       2.185230114291e+04 
       2.757097179463e-02       2.177459115022e+04 
       2.770700061346e-02       2.169644518719e+04 
       2.784327552742e-02       2.161814308497e+04 
       2.797980231011e-02       2.153962174411e+04 
       2.811658689200e-02       2.146099685247e+04 
       2.825363536557e-02       2.138226743364e+04 
       2.839095399053e-02       2.130317776037e+04 
       2.852854919938e-02       2.122406321730e+04 
       2.866642760306e-02       2.114483648860e+04 
       2.880459599693e-02       2.106541862473e+04 
       2.894306136697e-02       2.098590862153e+04 
       2.908183089623e-02       2.090641473250e+04 
       2.922091197155e-02       2.082664675619e+04 
       2.936031219060e-02       2.074656322678e+04 
       2.950003936914e-02       2.066661003632e+04 
       2.964010154871e-02       2.058675895719e+04 
       2.978050700456e-02       2.050639934229e+04 
       2.992126425397e-02       2.042643557033e+04 
       3.006238206491e-02       2.034589983518e+04 
       3.020386946515e-02       2.026575443992e+04 
       3.034573575170e-02       2.018529154515e+04 
       3.048799050075e-02       2.010470034996e+04 
       3.063064357799e-02       2.002429515605e+04 
       3.077370514954e-02       1.994375903500e+04 
       3.091718569320e-02       1.986327460748e+04 
       3.106109601043e-02       1.978247219507e+04 
       3.120544723876e-02       1.970201959057e+04 
       3.135025086488e-02       1.962130872406e+04 
       3.149551873830e-02       1.954067692094e+04 
       3.164126308575e-02       1.946001271108e+04 
       3.178749652624e-02       1.937944225508e+04 
       3.193423208691e-02       1.929869436047e+04 
       3.208148321967e-02       1.921800754686e+04 
       3.222926381867e-02       1.913747854607e+04 
       3.237758823870e-02       1.905693710649e+04 
       3.252647131456e-02       1.897641175513e+04 
       3.267592838139e-02       1.889590741979e+04 
       3.282597529617e-02       1.881533197452e+04 
       3.297662846032e-02       1.873482318874e+04 
       3.312790484351e-02       1.865442302063e+04 
       3.327982200886e-02       1.857403089608e+04 
       3.343239813946e-02       1.849365037531e+04 
       3.358565206645e-02       1.841335875584e+04 
       3.373960329860e-02       1.833308800369e+04 
       3.389427205373e-02       1.825291611816e+04 
       3.404967929183e-02       1.817282678973e+04 
       3.420584675016e-02       1.809270337971e+04 
       3.436279698052e-02       1.801264070474e+04 
       3.452055338865e-02       1.793264905174e+04 
       3.467914027608e-02       1.785276331867e+04 
       3.483858288458e-02       1.777293350007e+04 
       3.499890744337e-02       1.769320855149e+04 
       3.516014121926e-02       1.761337077462e+04 
       3.532231257010e-02       1.753378742237e+04 
       3.548545100158e-02       1.745420826711e+04 
       3.564958722785e-02       1.737477221844e+04 
       3.581475323610e-02       1.729531298213e+04 
       3.598098235552e-02       1.721593853268e+04 
       3.614830933092e-02       1.713660050441e+04 
       3.631677040150e-02       1.705736547863e+04 
       3.648640338511e-02       1.697818976273e+04 
       3.665724776843e-02       1.689907997343e+04 
       3.682934480372e-02       1.682006346100e+04 
       3.700273761257e-02       1.674101437145e+04 
       3.717747129741e-02       1.666215027525e+04 
       3.735359306125e-02       1.658328348895e+04 
       3.753115233669e-02       1.650449841942e+04 
       3.771020092475e-02       1.642571900360e+04 
       3.789079314475e-02       1.634698206240e+04 
       3.807298599596e-02       1.626835160825e+04 
       3.825683933246e-02       1.618973035652e+04 
       3.844241605221e-02       1.611118854634e+04 
       3.862978230205e-02       1.603267077171e+04 
       3.881900769994e-02       1.595416392900e+04 
       3.901016557640e-02       1.587573376163e+04 
       3.920333323705e-02       1.579729061692e+04 
       3.939859224859e-02       1.571885587600e+04 
       3.959602875058e-02       1.564046759905e+04 
       3.979573379598e-02       1.556218125055e+04 
       3.999780372362e-02       1.548359109172e+04 
       4.020234056615e-02       1.540522934450e+04 
       4.040945249762e-02       1.532680162517e+04 
       4.061925432541e-02       1.524829029793e+04 
       4.083186803157e-02       1.516985703449e+04 
       4.104742336992e-02       1.509130453032e+04 
       4.126605852553e-02       1.501274663116e+04 
       4.148792084466e-02       1.493409078588e+04 
       4.171316764413e-02       1.485535514617e+04 
       4.194196711067e-02       1.477652453330e+04 
       4.217449930223e-02       1.469756315459e+04 
       4.241095726528e-02       1.461854451216e+04 
       4.265154828431e-02       1.453930371631e+04 
       4.289649528238e-02       1.445999670812e+04 
       4.314603839480e-02       1.438053400404e+04 
       4.340043674179e-02       1.430087738027e+04 
       4.365997043041e-02       1.422094381648e+04 
       4.392494282161e-02       1.414094552226e+04 
       4.419568310462e-02       1.406055983141e+04 
       4.447254922910e-02       1.397987879514e+04 
       4.475593125466e-02       1.389905164458e+04 
       4.504625518961e-02       1.381768825488e+04 
       4.534398740464e-02       1.373604959622e+04 
       4.564963972515e-02       1.365397479307e+04 
       4.596377532751e-02       1.357168370704e+04 
       4.628701559154e-02       1.348858114705e+04 
       4.662004809513e-02       1.340530541496e+04 
       4.696363597875e-02       1.332118176069e+04 
       4.731862896028e-02       1.323638088376e+04 
       4.768597634693e-02       1.315109058755e+04 
       4.806674247450e-02       1.306511652668e+04 
       4.846212511102e-02       1.297803212142e+04 
       4.887347749634e-02       1.289014930196e+04 
       4.930233486194e-02       1.280068026071e+04 
       4.975044649438e-02       1.271083861523e+04 
       5.021981468560e-02       1.261925662861e+04 
       5.071274226732e-02       1.252632850888e+04 
       5.123189087248e-02       1.243168804141e+04 
       5.178035261792e-02       1.233489316253e+04 
       5.236173856606e-02       1.223644014544e+04 
       5.298028808294e-02       1.213525747072e+04 
       5.364100399446e-02       1.203119414320e+04 
       5.434981906601e-02       1.192366103294e+04 
       5.511379937008e-02       1.181194692797e+04 
       5.594138867535e-02       1.169509083218e+04 
       5.684269333237e-02       1.157235801005e+04 
       5.782979594177e-02       1.144211359894e+04 
       5.891706257277e-02       1.130239417367e+04 
