# Matter power spectrum P(k) at redshift z=0
# for k=1.045e-05 to 8.48825 h/Mpc,
# number of wavenumbers equal to 612
#    1:k (h/Mpc)              2:P (Mpc/h)^3        
       1.045004358465e-05       5.246581297044e+01 
       2.333095830364e-05       1.136047256074e+02 
       3.625717138197e-05       1.736019845608e+02 
       4.926346170446e-05       2.331317056490e+02 
       6.238518340034e-05       2.925732406382e+02 
       7.565858108432e-05       3.522083257537e+02 
       8.912111517766e-05       4.122762395174e+02 
       1.028118016360e-04       4.729962932191e+02 
       1.167715704439e-04       5.345793318067e+02 
       1.310436472695e-04       5.972346362482e+02 
       1.456739626796e-04       6.611746831877e+02 
       1.607115932535e-04       7.266188145202e+02 
       1.762092387588e-04       7.937963475156e+02 
       1.922237391794e-04       8.629493895465e+02 
       2.088166347275e-04       9.343355253678e+02 
       2.260547708937e-04       1.008230461926e+03 
       2.440109489228e-04       1.084930664540e+03 
       2.627646196243e-04       1.164756017103e+03 
       2.824026148746e-04       1.248052473247e+03 
       3.030199061975e-04       1.335194660643e+03 
       3.247203730558e-04       1.426588364107e+03 
       3.476175545344e-04       1.522672751493e+03 
       3.718353465748e-04       1.623922190074e+03 
       3.975085925723e-04       1.730847384223e+03 
       4.247834979996e-04       1.843995597270e+03 
       4.538177802962e-04       1.963949523186e+03 
       4.847804449377e-04       2.091324409425e+03 
       5.178510599038e-04       2.226762913959e+03 
       5.532183878397e-04       2.370927194116e+03 
       5.910782339040e-04       2.524487676862e+03 
       6.316303850249e-04       2.688108287227e+03 
       6.750745609842e-04       2.862427787266e+03 
       7.216053758473e-04       3.048037604329e+03 
       7.714064215132e-04       3.245456796135e+03 
       8.246437268604e-04       3.455105464118e+03 
       8.814589978991e-04       3.677278381292e+03 
       9.419631766204e-04       3.912121330051e+03 
       1.006230932013e-03       4.159612543657e+03 
       1.074296682416e-03       4.419551677529e+03 
       1.146152626855e-03       4.691558000904e+03 
       1.221749044348e-03       4.975078520422e+03 
       1.300996843579e-03       5.269405612442e+03 
       1.383772069420e-03       5.573687751524e+03 
       1.469921856686e-03       5.886974435161e+03 
       1.559271205766e-03       6.208288499893e+03 
       1.651629950110e-03       6.536592126842e+03 
       1.746799373907e-03       6.870841366063e+03 
       1.844578083652e-03       7.210010596182e+03 
       1.944766900247e-03       7.553112060354e+03 
       2.047172686846e-03       7.899210136773e+03 
       2.151611143041e-03       8.247431484213e+03 
       2.257908672078e-03       8.596970527924e+03 
       2.365903467808e-03       8.947092836158e+03 
       2.475445979787e-03       9.297132383760e+03 
       2.586398907712e-03       9.646492185203e+03 
       2.698636858273e-03       9.994638859915e+03 
       2.812045774843e-03       1.034110146367e+04 
       2.926522227346e-03       1.068546001783e+04 
       3.041972628545e-03       1.102735020711e+04 
       3.158312425015e-03       1.136645094435e+04 
       3.275465296538e-03       1.170248419196e+04 
       3.393362386273e-03       1.203520711048e+04 
       3.511941575581e-03       1.236441224232e+04 
       3.631146811106e-03       1.268991882467e+04 
       3.750927487358e-03       1.301157377245e+04 
       3.871237885001e-03       1.332924584074e+04 
       3.992036663108e-03       1.364282471098e+04 
       4.113286402413e-03       1.395221960810e+04 
       4.234953195938e-03       1.425735027967e+04 
       4.357006283050e-03       1.455815682604e+04 
       4.479417722957e-03       1.485458829892e+04 
       4.602162103782e-03       1.514660722913e+04 
       4.725216283514e-03       1.543417869334e+04 
       4.848559159457e-03       1.571725202438e+04 
       4.972171463028e-03       1.599588968988e+04 
       5.096035577095e-03       1.627002572641e+04 
       5.220135373297e-03       1.653967375915e+04 
       5.344456067073e-03       1.680492336794e+04 
       5.468984088379e-03       1.706568995826e+04 
       5.593706966285e-03       1.732202207689e+04 
       5.718613225869e-03       1.757391815480e+04 
       5.843692296004e-03       1.782089679986e+04 
       5.968934426788e-03       1.806397675812e+04 
       6.094330615523e-03       1.830268282844e+04 
       6.219872540296e-03       1.853705500751e+04 
       6.345552500285e-03       1.876712094396e+04 
       6.471363362067e-03       1.899287173199e+04 
       6.597298511245e-03       1.921437935157e+04 
       6.723351808830e-03       1.943175084885e+04 
       6.849517551848e-03       1.964488685842e+04 
       6.975790437733e-03       1.985403685502e+04 
       7.102165532088e-03       2.005908434539e+04 
       7.228638239473e-03       2.026006054245e+04 
       7.355204276895e-03       2.045691053509e+04 
       7.481859649730e-03       2.065032025793e+04 
       7.608600629819e-03       2.083932183690e+04 
       7.735423735528e-03       2.102489471773e+04 
       7.862325713566e-03       2.120613908153e+04 
       7.989303522403e-03       2.138365133600e+04 
       8.116354317107e-03       2.155748587867e+04 
       8.243475435493e-03       2.172727701698e+04 
       8.370664385430e-03       2.189385109158e+04 
       8.497918833217e-03       2.205735077134e+04 
       8.625236592919e-03       2.221643119435e+04 
       8.752615616576e-03       2.237197242635e+04 
       8.880053985201e-03       2.252396328769e+04 
       9.007549900508e-03       2.267247141942e+04 
       9.135101677287e-03       2.281662106551e+04 
       9.262707736385e-03       2.295831886177e+04 
       9.390366598231e-03       2.309737819581e+04 
       9.518076876860e-03       2.323163707841e+04 
       9.645837274391e-03       2.336385029050e+04 
       9.773646575931e-03       2.349099622330e+04 
       9.901503644852e-03       2.361726236037e+04 
       1.002940741843e-02       2.373827222641e+04 
       1.015735690378e-02       2.385698162878e+04 
       1.028535117414e-02       2.397347082673e+04 
       1.041338936539e-02       2.408507448147e+04 
       1.054147067279e-02       2.419541768320e+04 
       1.066959434803e-02       2.430200100472e+04 
       1.079775969644e-02       2.440535349971e+04 
       1.092596607441e-02       2.450581507669e+04 
       1.105421288699e-02       2.460282042921e+04 
       1.118249958563e-02       2.469753122773e+04 
       1.131082566619e-02       2.478882484248e+04 
       1.143919066690e-02       2.487843718201e+04 
       1.156759416669e-02       2.496538886650e+04 
       1.169603578339e-02       2.504827234539e+04 
       1.182451517231e-02       2.512985929632e+04 
       1.195303202469e-02       2.520792468352e+04 
       1.208158606644e-02       2.528342867326e+04 
       1.221017705681e-02       2.535616871856e+04 
       1.233880478731e-02       2.542657646811e+04 
       1.246746908058e-02       2.549441771526e+04 
       1.259616978942e-02       2.555953641124e+04 
       1.272490679583e-02       2.562086579973e+04 
       1.285368001017e-02       2.568238676350e+04 
       1.298248937038e-02       2.574017623291e+04 
       1.311133484117e-02       2.579549034562e+04 
       1.324021641342e-02       2.584727316553e+04 
       1.336913410352e-02       2.589788686583e+04 
       1.349808795276e-02       2.594767340814e+04 
       1.362707802683e-02       2.599358745305e+04 
       1.375610441532e-02       2.603611690867e+04 
       1.388516723129e-02       2.607756069769e+04 
       1.401426661081e-02       2.611708778285e+04 
       1.414340271265e-02       2.615473004721e+04 
       1.427257571792e-02       2.619033168144e+04 
       1.440178582977e-02       2.622329219316e+04 
       1.453103327311e-02       2.625378365944e+04 
       1.466031829438e-02       2.628268531164e+04 
       1.478964116137e-02       2.630848735104e+04 
       1.491900216301e-02       2.633383207627e+04 
       1.504840160920e-02       2.635652676565e+04 
       1.517783983073e-02       2.637708229695e+04 
       1.530731717916e-02       2.639548140036e+04 
       1.543683402673e-02       2.641252515684e+04 
       1.556639076630e-02       2.642751718712e+04 
       1.569598781137e-02       2.644023576491e+04 
       1.582562559600e-02       2.645151593689e+04 
       1.595530457487e-02       2.646078826124e+04 
       1.608502522327e-02       2.646873584274e+04 
       1.621478803722e-02       2.647456486803e+04 
       1.634459353345e-02       2.647751570499e+04 
       1.647444224958e-02       2.648058593707e+04 
       1.660433474414e-02       2.648127510774e+04 
       1.673427159678e-02       2.648011502834e+04 
       1.686425340835e-02       2.647667274773e+04 
       1.699428080111e-02       2.647327245460e+04 
       1.712435441886e-02       2.646611358454e+04 
       1.725447492718e-02       2.645860277042e+04 
       1.738464301363e-02       2.645070855130e+04 
       1.751485938798e-02       2.643907519803e+04 
       1.764512478243e-02       2.642781492505e+04 
       1.777543995193e-02       2.641304487886e+04 
       1.790580567440e-02       2.639831495419e+04 
       1.803622275109e-02       2.638211165212e+04 
       1.816669200684e-02       2.636369441834e+04 
       1.829721429042e-02       2.634384056179e+04 
       1.842779047491e-02       2.632346673050e+04 
       1.855842145803e-02       2.630173641692e+04 
       1.868910816253e-02       2.627833060583e+04 
       1.881985153660e-02       2.625328236192e+04 
       1.895065255427e-02       2.622697774944e+04 
       1.908151221584e-02       2.619966004953e+04 
       1.921243154835e-02       2.617066556124e+04 
       1.934341160602e-02       2.614066929806e+04 
       1.947445347077e-02       2.610975491029e+04 
       1.960555825268e-02       2.607666222206e+04 
       1.973672709056e-02       2.604392490135e+04 
       1.986796115246e-02       2.600863557966e+04 
       1.999926163623e-02       2.597259192732e+04 
       2.013062977012e-02       2.593563137434e+04 
       2.026206681336e-02       2.589753128595e+04 
       2.039357405681e-02       2.585805286372e+04 
       2.052515282356e-02       2.581848372720e+04 
       2.065680446963e-02       2.577692718985e+04 
       2.078853038464e-02       2.573422473756e+04 
       2.092033199250e-02       2.569060075278e+04 
       2.105221075219e-02       2.564624924076e+04 
       2.118416815845e-02       2.560157831805e+04 
       2.131620574262e-02       2.555510455865e+04 
       2.144832507339e-02       2.550723412371e+04 
       2.158052775766e-02       2.545940478904e+04 
       2.171281544139e-02       2.540993291257e+04 
       2.184518981047e-02       2.535983845194e+04 
       2.197765259164e-02       2.530952016905e+04 
       2.211020555343e-02       2.525722861058e+04 
       2.224285050711e-02       2.520464312577e+04 
       2.237558930770e-02       2.515121685384e+04 
       2.250842385501e-02       2.509693495336e+04 
       2.264135609466e-02       2.504190794206e+04 
       2.277438801924e-02       2.498604383801e+04 
       2.290752166936e-02       2.492954897366e+04 
       2.304075913487e-02       2.487271641738e+04 
       2.317410255604e-02       2.481411964467e+04 
       2.330755412480e-02       2.475542842615e+04 
       2.344111608601e-02       2.469596565019e+04 
       2.357479073879e-02       2.463628887349e+04 
       2.370858043787e-02       2.457498127905e+04 
       2.384248759499e-02       2.451349494359e+04 
       2.397651468034e-02       2.445182081590e+04 
       2.411066422407e-02       2.438862992438e+04 
       2.424493881783e-02       2.432530551072e+04 
       2.437934111633e-02       2.426139236223e+04 
       2.451387383901e-02       2.419705836454e+04 
       2.464853977174e-02       2.413209226046e+04 
       2.478334176854e-02       2.406600444438e+04 
       2.491828275342e-02       2.400030781245e+04 
       2.505336572221e-02       2.393312662876e+04 
       2.518859374453e-02       2.386598632557e+04 
       2.532396996575e-02       2.379851230785e+04 
       2.545949760907e-02       2.372999826363e+04 
       2.559517997761e-02       2.366128548955e+04 
       2.573102045669e-02       2.359235070300e+04 
       2.586702251600e-02       2.352276827598e+04 
       2.600318971206e-02       2.345267577520e+04 
       2.613952569055e-02       2.338196784994e+04 
       2.627603418892e-02       2.331122301610e+04 
       2.641271903892e-02       2.323992526767e+04 
       2.654958416936e-02       2.316835629730e+04 
       2.668663360886e-02       2.309598305658e+04 
       2.682387148875e-02       2.302378603060e+04 
       2.696130204606e-02       2.295100153541e+04 
       2.709892962664e-02       2.287783778096e+04 
       2.723675868836e-02       2.280429309075e+04 
       2.737479380444e-02       2.273062292365e+04 
       2.751303966691e-02       2.265650692385e+04 
       2.765150109016e-02       2.258219858201e+04 
       2.779018301472e-02       2.250747351900e+04 
       2.792909051104e-02       2.243233053710e+04 
       2.806822878352e-02       2.235703923310e+04 
       2.820760317466e-02       2.228168630658e+04 
       2.834721916939e-02       2.220580169666e+04 
       2.848708239949e-02       2.212975455460e+04 
       2.862719864828e-02       2.205354747642e+04 
       2.876757385545e-02       2.197710275234e+04 
       2.890821412206e-02       2.190043990284e+04 
       2.904912571580e-02       2.182358891622e+04 
       2.919031507636e-02       2.174656997005e+04 
       2.933178882113e-02       2.166949681175e+04 
       2.947355375108e-02       2.159184410167e+04 
       2.961561685685e-02       2.151430043072e+04 
       2.975798532515e-02       2.143647915370e+04 
       2.990066654541e-02       2.135871770429e+04 
       3.004366811665e-02       2.128056043806e+04 
       3.018699785478e-02       2.120237145450e+04 
       3.033066380005e-02       2.112411744127e+04 
       3.047467422493e-02       2.104559968228e+04 
       3.061903764232e-02       2.096727507274e+04 
       3.076376281406e-02       2.088842219385e+04 
       3.090885875989e-02       2.080962768471e+04 
       3.105433476679e-02       2.073078115122e+04 
       3.120020039870e-02       2.065183730569e+04 
       3.134646550675e-02       2.057293125497e+04 
       3.149314023990e-02       2.049388518715e+04 
       3.164023505612e-02       2.041472613398e+04 
       3.178776073406e-02       2.033534432746e+04 
       3.193572838529e-02       2.025607242015e+04 
       3.208414946714e-02       2.017680060653e+04 
       3.223303579609e-02       2.009729372745e+04 
       3.238239956191e-02       2.001801319673e+04 
       3.253225334243e-02       1.993851087347e+04 
       3.268261011904e-02       1.985886069785e+04 
       3.283348329301e-02       1.977951075697e+04 
       3.298488670259e-02       1.969992781215e+04 
       3.313683464103e-02       1.962029046352e+04 
       3.328934187547e-02       1.954065847003e+04 
       3.344242366689e-02       1.946119928608e+04 
       3.359609579103e-02       1.938152283501e+04 
       3.375037456053e-02       1.930183091766e+04 
       3.390527684814e-02       1.922245655410e+04 
       3.406082011128e-02       1.914268277730e+04 
       3.421702241794e-02       1.906316787826e+04 
       3.437390247395e-02       1.898367055022e+04 
       3.453147965192e-02       1.890405385953e+04 
       3.468977402169e-02       1.882456309653e+04 
       3.484880638259e-02       1.874502166058e+04 
       3.500859829758e-02       1.866552821360e+04 
       3.516917212940e-02       1.858606959023e+04 
       3.533055107886e-02       1.850665014388e+04 
       3.549275922540e-02       1.842730328220e+04 
       3.565582157023e-02       1.834782587888e+04 
       3.581976408199e-02       1.826851512217e+04 
       3.598461374536e-02       1.818919750488e+04 
       3.615039861271e-02       1.810992169842e+04 
       3.631714785906e-02       1.803076163341e+04 
       3.648489184058e-02       1.795142603559e+04 
       3.665366215692e-02       1.787241099859e+04 
       3.682349171774e-02       1.779318575950e+04 
       3.699441481367e-02       1.771410847556e+04 
       3.716646719210e-02       1.763524701226e+04 
       3.733968613823e-02       1.755610649144e+04 
       3.751411056177e-02       1.747709823637e+04 
       3.768978108986e-02       1.739819574329e+04 
       3.786674016657e-02       1.731920617781e+04 
       3.804503215979e-02       1.724031364740e+04 
       3.822470347586e-02       1.716152800035e+04 
       3.840580268302e-02       1.708265992536e+04 
       3.858838064404e-02       1.700378708180e+04 
       3.877249065931e-02       1.692506169493e+04 
       3.895818862096e-02       1.684623896644e+04 
       3.914553317941e-02       1.676750193171e+04 
       3.933458592328e-02       1.668873613102e+04 
       3.952541157417e-02       1.661003001631e+04 
       3.971807819759e-02       1.653126859676e+04 
       3.991265743180e-02       1.645256315604e+04 
       4.010922473646e-02       1.637384313591e+04 
       4.030785966288e-02       1.629512463896e+04 
       4.050864614847e-02       1.621628443152e+04 
       4.071167283779e-02       1.613749313680e+04 
       4.091703343322e-02       1.605872640200e+04 
       4.112482707841e-02       1.597987760257e+04 
       4.133515877846e-02       1.590095130955e+04 
       4.154813986079e-02       1.582199135655e+04 
       4.176388848168e-02       1.574288193971e+04 
       4.198253018382e-02       1.566378180939e+04 
       4.220419851120e-02       1.558467267394e+04 
       4.242903568833e-02       1.550536081561e+04 
       4.265719337197e-02       1.542605183217e+04 
       4.288883348483e-02       1.534649466250e+04 
       4.312412914181e-02       1.526693983915e+04 
       4.336326568147e-02       1.518695575635e+04 
       4.360644181685e-02       1.510713157072e+04 
       4.385387092265e-02       1.502696205309e+04 
       4.410578247799e-02       1.494661213220e+04 
       4.436242368764e-02       1.486608367448e+04 
       4.462406130828e-02       1.478529632521e+04 
       4.489098371107e-02       1.470431978036e+04 
       4.516350321751e-02       1.462305256138e+04 
       4.544195875207e-02       1.454133466668e+04 
       4.572671886360e-02       1.445933777788e+04 
       4.601818517708e-02       1.437706661222e+04 
       4.631679634960e-02       1.429430587675e+04 
       4.662303261929e-02       1.421129158221e+04 
       4.693742105388e-02       1.412763772382e+04 
       4.726054162823e-02       1.404348381502e+04 
       4.759303428806e-02       1.395899303030e+04 
       4.793560719149e-02       1.387345001891e+04 
       4.828904636352e-02       1.378762069878e+04 
       4.865422705274e-02       1.370082149558e+04 
       4.903212714816e-02       1.361347979444e+04 
       4.942384310017e-02       1.352511195072e+04 
       4.983060889991e-02       1.343528663504e+04 
       5.025381881014e-02       1.334482739971e+04 
       5.069505471927e-02       1.325360133928e+04 
       5.115611921608e-02       1.316028377579e+04 
       5.163907577182e-02       1.306580461429e+04 
       5.214629778177e-02       1.297024669841e+04 
       5.268052867832e-02       1.287225489985e+04 
       5.324495589638e-02       1.277189619200e+04 
       5.384330215613e-02       1.266974048925e+04 
       5.447993831049e-02       1.256403764996e+04 
       5.516002281028e-02       1.245619700579e+04 
       5.588967347556e-02       1.234340384298e+04 
       5.667617728526e-02       1.222676339927e+04 
       5.752824238763e-02       1.210471404091e+04 
       5.845629166292e-02       1.197588552465e+04 
       5.947278550584e-02       1.183880316688e+04 
       6.059253702404e-02       1.169180278533e+04 
       6.183293616966e-02       1.153146390246e+04 
