# Matter power spectrum P(k) at redshift z=1
# for k=1.045e-05 to 9.93813 h/Mpc,
# number of wavenumbers equal to 2318
#    1:k (h/Mpc)              2:P (Mpc/h)^3        
       1.045004358465e-05       1.935676975848e+01 
       2.333095830364e-05       4.191343233174e+01 
       3.625717138197e-05       6.404900617496e+01 
       4.926346170446e-05       8.601224418306e+01 
       6.238518340034e-05       1.079431645978e+02 
       7.565858108432e-05       1.299457738725e+02 
       8.912111517766e-05       1.521084193421e+02 
       1.028118016360e-04       1.745120885705e+02 
       1.167715704439e-04       1.972346545647e+02 
       1.310436472695e-04       2.203534237162e+02 
       1.456739626796e-04       2.439468941039e+02 
       1.607115932535e-04       2.680961120648e+02 
       1.762092387588e-04       2.928858221298e+02 
       1.922237391794e-04       3.184055091677e+02 
       2.088166347275e-04       3.447503935286e+02 
       2.260547708937e-04       3.720224095860e+02 
       2.440109489228e-04       4.003311846286e+02 
       2.627646196243e-04       4.297950237202e+02 
       2.824026148746e-04       4.605418937422e+02 
       3.030199061975e-04       4.927103901356e+02 
       3.247203730558e-04       5.264506565183e+02 
       3.476175545344e-04       5.619252108144e+02 
       3.718353465748e-04       5.993096147647e+02 
       3.975085925723e-04       6.387928995382e+02 
       4.247834979996e-04       6.805776361808e+02 
       4.538177802962e-04       7.248795110206e+02 
       4.847804449377e-04       7.719262450261e+02 
       5.178510599038e-04       8.219556619133e+02 
       5.532183878397e-04       8.752127285810e+02 
       5.910782339040e-04       9.319453624038e+02 
       6.316303850249e-04       9.923988992751e+02 
       6.750745609842e-04       1.056809151324e+03 
       7.216053758473e-04       1.125394159616e+03 
       7.714064215132e-04       1.198344917986e+03 
       8.246437268604e-04       1.275815570542e+03 
       8.814589978991e-04       1.357913760185e+03 
       9.419631766204e-04       1.444692025920e+03 
       1.006230932013e-03       1.536141160226e+03 
       1.074296682416e-03       1.632186326401e+03 
       1.146152626855e-03       1.732686546027e+03 
       1.221749044348e-03       1.837437719908e+03 
       1.300996843579e-03       1.946179005402e+03 
       1.383772069420e-03       2.058596533263e+03 
       1.469921856686e-03       2.174339710422e+03 
       1.559271205766e-03       2.293047778607e+03 
       1.651629950110e-03       2.414337223381e+03 
       1.746799373907e-03       2.537822075785e+03 
       1.844578083652e-03       2.663123177202e+03 
       1.944766900247e-03       2.789875544684e+03 
       2.047172686846e-03       2.917733689422e+03 
       2.151611143041e-03       3.046375252283e+03 
       2.257908672078e-03       3.175502921557e+03 
       2.365903467808e-03       3.304845543216e+03 
       2.475445979787e-03       3.434157143984e+03 
       2.586398907712e-03       3.563217174573e+03 
       2.698636858273e-03       3.691828553299e+03 
       2.812045774843e-03       3.819817296441e+03 
       2.926522227346e-03       3.947028324231e+03 
       3.041972628545e-03       4.073327109580e+03 
       3.158312425015e-03       4.198595112356e+03 
       3.275465296538e-03       4.322729678895e+03 
       3.393362386273e-03       4.445641120404e+03 
       3.511941575581e-03       4.567252810274e+03 
       3.631146811106e-03       4.687497958018e+03 
       3.750927487358e-03       4.806320048147e+03 
       3.871237885001e-03       4.923670585838e+03 
       3.992036663108e-03       5.039508898571e+03 
       4.113286402413e-03       5.153801466184e+03 
       4.234953195938e-03       5.266518838227e+03 
       4.357006283050e-03       5.377638623028e+03 
       4.479417722957e-03       5.487142106293e+03 
       4.602162103782e-03       5.595015406120e+03 
       4.725216283514e-03       5.701247310106e+03 
       4.848559159457e-03       5.805830597284e+03 
       4.972171463028e-03       5.908760236617e+03 
       5.096035577095e-03       6.010034818958e+03 
       5.220135373297e-03       6.109655388704e+03 
       5.344456067073e-03       6.207623136211e+03 
       5.468984088379e-03       6.303941810375e+03 
       5.593706966285e-03       6.398619564099e+03 
       5.718613225869e-03       6.491660284272e+03 
       5.843692296004e-03       6.583074731360e+03 
       5.968934426788e-03       6.672871281077e+03 
       6.094330615523e-03       6.761059424877e+03 
       6.219872540296e-03       6.847733500600e+03 
       6.345552500285e-03       6.932805322838e+03 
       6.471363362067e-03       7.016226123969e+03 
       6.597298511245e-03       7.098022319601e+03 
       6.723351808830e-03       7.178265618356e+03 
       6.849517551848e-03       7.256992886067e+03 
       6.975790437733e-03       7.334186799731e+03 
       7.102165532088e-03       7.409905508974e+03 
       7.228638239473e-03       7.484205957942e+03 
       7.355204276895e-03       7.557066216927e+03 
       7.481859649730e-03       7.628270861645e+03 
       7.608600629819e-03       7.698082182020e+03 
       7.735423735528e-03       7.766795058662e+03 
       7.862325713566e-03       7.833786107828e+03 
       7.989303522403e-03       7.899376567435e+03 
       8.116354317107e-03       7.963573853897e+03 
       8.243475435493e-03       8.026380778949e+03 
       8.370664385430e-03       8.087830818208e+03 
       8.497918833217e-03       8.147963855850e+03 
       8.625236592919e-03       8.206733300355e+03 
       8.752615616576e-03       8.264181639874e+03 
       8.880053985201e-03       8.320321316966e+03 
       9.007549900508e-03       8.375176901300e+03 
       9.135101677287e-03       8.428724842509e+03 
       9.262707736385e-03       8.481044438249e+03 
       9.390366598231e-03       8.532118361658e+03 
       9.518076876860e-03       8.581915515044e+03 
       9.645837274391e-03       8.630557327783e+03 
       9.773646575931e-03       8.677667947860e+03 
       9.901503644852e-03       8.724158939437e+03 
       1.002940741843e-02       8.769150177059e+03 
       1.015735690378e-02       8.813009875062e+03 
       1.028535117414e-02       8.855739521281e+03 
       1.041338936539e-02       8.897263559187e+03 
       1.054147067279e-02       8.937732151338e+03 
       1.066959434803e-02       8.977054525972e+03 
       1.079775969644e-02       9.015275181821e+03 
       1.092596607441e-02       9.052405208184e+03 
       1.105421288699e-02       9.088426056120e+03 
       1.118249958563e-02       9.123123093429e+03 
       1.131082566619e-02       9.157062415383e+03 
       1.143919066690e-02       9.189984856312e+03 
       1.156759416669e-02       9.222168941383e+03 
       1.169603578339e-02       9.252993338950e+03 
       1.182451517231e-02       9.282889699129e+03 
       1.195303202469e-02       9.311750361180e+03 
       1.208158606644e-02       9.339636027665e+03 
       1.221017705681e-02       9.366553661544e+03 
       1.233880478731e-02       9.392515549403e+03 
       1.246746908058e-02       9.417529482152e+03 
       1.259616978942e-02       9.441610779512e+03 
       1.272490679583e-02       9.464713372190e+03 
       1.285368001017e-02       9.487009991289e+03 
       1.298248937038e-02       9.508359652924e+03 
       1.311133484117e-02       9.528811499810e+03 
       1.324021641342e-02       9.548348898400e+03 
       1.336913410352e-02       9.567039853205e+03 
       1.349808795276e-02       9.584961932165e+03 
       1.362707802683e-02       9.601964473188e+03 
       1.375610441532e-02       9.618081993408e+03 
       1.388516723129e-02       9.633423182870e+03 
       1.401426661081e-02       9.647926966164e+03 
       1.414340271265e-02       9.661710026591e+03 
       1.427257571792e-02       9.674636663761e+03 
       1.440178582977e-02       9.686775696175e+03 
       1.453103327311e-02       9.698124889595e+03 
       1.466031829438e-02       9.708721406269e+03 
       1.478964116137e-02       9.718553372084e+03 
       1.491900216301e-02       9.727644187213e+03 
       1.504840160920e-02       9.735988107644e+03 
       1.517783983073e-02       9.743621887054e+03 
       1.530731717916e-02       9.750517714080e+03 
       1.543683402673e-02       9.756721092736e+03 
       1.556639076630e-02       9.762216368548e+03 
       1.569598781137e-02       9.767025044465e+03 
       1.582562559600e-02       9.771161005556e+03 
       1.595530457487e-02       9.774616431031e+03 
       1.608502522327e-02       9.777393353992e+03 
       1.621478803722e-02       9.779543947318e+03 
       1.634459353345e-02       9.780969595496e+03 
       1.647444224958e-02       9.781880686075e+03 
       1.660433474414e-02       9.782110798297e+03 
       1.673427159678e-02       9.781710883711e+03 
       1.686425340835e-02       9.780654458437e+03 
       1.699428080111e-02       9.779084088130e+03 
       1.712435441886e-02       9.776822220718e+03 
       1.725447492718e-02       9.774027937760e+03 
       1.738464301363e-02       9.770735477867e+03 
       1.751485938798e-02       9.766800316293e+03 
       1.764512478243e-02       9.762291909100e+03 
       1.777543995193e-02       9.757000103183e+03 
       1.790580567440e-02       9.751355543102e+03 
       1.803622275109e-02       9.745532783115e+03 
       1.816669200684e-02       9.738569997412e+03 
       1.829721429042e-02       9.731615573010e+03 
       1.842779047491e-02       9.723708626630e+03 
       1.855842145803e-02       9.715795225254e+03 
       1.868910816253e-02       9.707109482900e+03 
       1.881985153660e-02       9.697911360513e+03 
       1.895065255427e-02       9.688239768131e+03 
       1.908151221584e-02       9.678100000461e+03 
       1.921243154835e-02       9.667413571657e+03 
       1.934341160602e-02       9.656184844542e+03 
       1.947445347077e-02       9.644875908135e+03 
       1.960555825268e-02       9.632841943123e+03 
       1.973672709056e-02       9.620521176261e+03 
       1.986796115246e-02       9.607419113873e+03 
       1.999926163623e-02       9.594132157996e+03 
       2.013062977012e-02       9.580590208289e+03 
       2.026206681336e-02       9.566519976283e+03 
       2.039357405681e-02       9.551990286077e+03 
       2.052515282356e-02       9.537168010294e+03 
       2.065680446963e-02       9.521902855242e+03 
       2.078853038464e-02       9.506195622617e+03 
       2.092033199250e-02       9.490130643497e+03 
       2.105221075219e-02       9.473828924352e+03 
       2.118416815845e-02       9.457124679301e+03 
       2.131620574262e-02       9.439983620163e+03 
       2.144832507339e-02       9.422346689198e+03 
       2.158052775766e-02       9.404600211674e+03 
       2.171281544139e-02       9.386427049207e+03 
       2.184518981047e-02       9.367896062938e+03 
       2.197765259164e-02       9.349271081171e+03 
       2.211020555343e-02       9.330050206208e+03 
       2.224285050711e-02       9.310638092355e+03 
       2.237558930770e-02       9.290851174409e+03 
       2.250842385501e-02       9.270853777076e+03 
       2.264135609466e-02       9.250433762361e+03 
       2.277438801924e-02       9.229794247740e+03 
       2.290752166936e-02       9.208998456453e+03 
       2.304075913487e-02       9.187913096790e+03 
       2.317410255604e-02       9.166286113354e+03 
       2.330755412480e-02       9.144565969800e+03 
       2.344111608601e-02       9.122643983586e+03 
       2.357479073879e-02       9.100568568998e+03 
       2.370858043787e-02       9.077956606352e+03 
       2.384248759499e-02       9.055290066216e+03 
       2.397651468034e-02       9.032439333927e+03 
       2.411066422407e-02       9.009180356106e+03 
       2.424493881783e-02       8.985766313716e+03 
       2.437934111633e-02       8.962154574634e+03 
       2.451387383901e-02       8.938335929442e+03 
       2.464853977174e-02       8.914330567688e+03 
       2.478334176854e-02       8.889932518018e+03 
       2.491828275342e-02       8.865621766782e+03 
       2.505336572221e-02       8.840847782317e+03 
       2.518859374453e-02       8.816053332626e+03 
       2.532396996575e-02       8.791110938895e+03 
       2.545949760907e-02       8.765805625855e+03 
       2.559517997761e-02       8.740422862284e+03 
       2.573102045669e-02       8.714907904578e+03 
       2.586702251600e-02       8.689242467013e+03 
       2.600318971206e-02       8.663369835914e+03 
       2.613952569055e-02       8.637234937172e+03 
       2.627603418892e-02       8.611079609708e+03 
       2.641271903892e-02       8.584735407013e+03 
       2.654958416936e-02       8.558344330761e+03 
       2.668663360886e-02       8.531598979643e+03 
       2.682387148875e-02       8.504923533462e+03 
       2.696130204606e-02       8.478074294070e+03 
       2.709892962664e-02       8.451039471502e+03 
       2.723675868836e-02       8.423788469577e+03 
       2.737479380444e-02       8.396642763299e+03 
       2.751303966691e-02       8.369277198904e+03 
       2.765150109016e-02       8.341784229123e+03 
       2.779018301472e-02       8.314205186889e+03 
       2.792909051104e-02       8.286437418633e+03 
       2.806822878352e-02       8.258634745720e+03 
       2.820760317466e-02       8.230816882469e+03 
       2.834721916939e-02       8.202775331894e+03 
       2.848708239949e-02       8.174671941028e+03 
       2.862719864828e-02       8.146497305990e+03 
       2.876757385545e-02       8.118264415211e+03 
       2.890821412206e-02       8.089937711838e+03 
       2.904912571580e-02       8.061559658647e+03 
       2.919031507636e-02       8.033111310856e+03 
       2.933178882113e-02       8.004670534658e+03 
       2.947355375108e-02       7.975935347144e+03 
       2.961561685685e-02       7.947313125199e+03 
       2.975798532515e-02       7.918545369664e+03 
       2.990066654541e-02       7.889806836425e+03 
       3.004366811665e-02       7.860949928855e+03 
       3.018699785478e-02       7.832081091884e+03 
       3.033066380005e-02       7.803173762660e+03 
       3.047467422493e-02       7.774156456310e+03 
       3.061903764232e-02       7.745226512552e+03 
       3.076376281406e-02       7.716096431234e+03 
       3.090885875989e-02       7.687005004139e+03 
       3.105433476679e-02       7.657865963581e+03 
       3.120020039870e-02       7.628705285494e+03 
       3.134646550675e-02       7.599561434045e+03 
       3.149314023990e-02       7.570403080990e+03 
       3.164023505612e-02       7.541109464330e+03 
       3.178776073406e-02       7.511799524446e+03 
       3.193572838529e-02       7.482508117706e+03 
       3.208414946714e-02       7.453233016774e+03 
       3.223303579609e-02       7.423869169137e+03 
       3.238239956191e-02       7.394585675045e+03 
       3.253225334243e-02       7.365206700025e+03 
       3.268261011904e-02       7.335793878751e+03 
       3.283348329301e-02       7.306511599203e+03 
       3.298488670259e-02       7.277110172017e+03 
       3.313683464103e-02       7.247668137909e+03 
       3.328934187547e-02       7.218254726164e+03 
       3.344242366689e-02       7.188907449281e+03 
       3.359609579103e-02       7.159467216509e+03 
       3.375037456053e-02       7.130041419637e+03 
       3.390527684814e-02       7.100715308691e+03 
       3.406082011128e-02       7.071245154678e+03 
       3.421702241794e-02       7.041851959296e+03 
       3.437390247395e-02       7.012495479732e+03 
       3.453147965192e-02       6.983077466894e+03 
       3.468977402169e-02       6.953725548842e+03 
       3.484880638259e-02       6.924352007211e+03 
       3.500859829758e-02       6.894975528075e+03 
       3.516917212940e-02       6.865637230964e+03 
       3.533055107886e-02       6.836298131923e+03 
       3.549275922540e-02       6.806974342951e+03 
       3.565582157023e-02       6.777630830975e+03 
       3.581976408199e-02       6.748332295131e+03 
       3.598461374536e-02       6.719033818614e+03 
       3.615039861271e-02       6.689752996927e+03 
       3.631714785906e-02       6.660494031876e+03 
       3.648489184058e-02       6.631205776801e+03 
       3.665366215692e-02       6.602001397565e+03 
       3.682349171774e-02       6.572754780392e+03 
       3.699441481367e-02       6.543524669257e+03 
       3.716646719210e-02       6.514394750167e+03 
       3.733968613823e-02       6.485165084758e+03 
       3.751411056177e-02       6.455979751395e+03 
       3.768978108986e-02       6.426833645635e+03 
       3.786674016657e-02       6.397653465786e+03 
       3.804503215979e-02       6.368512711838e+03 
       3.822470347586e-02       6.339407442442e+03 
       3.840580268302e-02       6.310283990718e+03 
       3.858838064404e-02       6.281134180667e+03 
       3.877249065931e-02       6.252059394733e+03 
       3.895818862096e-02       6.222956276006e+03 
       3.914553317941e-02       6.193869667778e+03 
       3.933458592328e-02       6.164775494070e+03 
       3.952541157417e-02       6.135688289325e+03 
       3.971807819759e-02       6.106608447633e+03 
       3.991265743180e-02       6.077531675548e+03 
       4.010922473646e-02       6.048443994012e+03 
       4.030785966288e-02       6.019366072015e+03 
       4.050864614847e-02       5.990256367177e+03 
       4.071167283779e-02       5.961151873619e+03 
       4.091703343322e-02       5.932042485874e+03 
       4.112482707841e-02       5.902927792950e+03 
       4.133515877846e-02       5.873762997514e+03 
       4.154813986079e-02       5.844599031743e+03 
       4.176388848168e-02       5.815392040135e+03 
       4.198253018382e-02       5.786176131132e+03 
       4.220419851120e-02       5.756932802984e+03 
       4.242903568833e-02       5.727655082690e+03 
       4.265719337197e-02       5.698344646040e+03 
       4.288883348483e-02       5.668958279511e+03 
       4.312412914181e-02       5.639581607959e+03 
       4.336326568147e-02       5.610067517482e+03 
       4.360644181685e-02       5.580550932213e+03 
       4.385387092265e-02       5.550936837066e+03 
       4.410578247799e-02       5.521276952095e+03 
       4.436242368764e-02       5.491535712476e+03 
       4.462406130828e-02       5.461689253889e+03 
       4.489098371107e-02       5.431762100496e+03 
       4.516350321751e-02       5.401745938537e+03 
       4.544195875207e-02       5.371585066533e+03 
       4.572671886360e-02       5.341296191612e+03 
       4.601818517708e-02       5.310902301726e+03 
       4.631679634960e-02       5.280324967933e+03 
       4.662303261929e-02       5.249667388352e+03 
       4.693742105388e-02       5.218752215598e+03 
       4.726054162823e-02       5.187666260616e+03 
       4.759303428806e-02       5.156431103791e+03 
       4.793560719149e-02       5.124886911313e+03 
       4.828904636352e-02       5.093132275148e+03 
       4.865422705274e-02       5.061135911234e+03 
       4.903212714816e-02       5.028792465632e+03 
       4.942384310017e-02       4.996168888839e+03 
       4.983060889991e-02       4.963054053264e+03 
       5.025381881014e-02       4.929682368519e+03 
       5.069505471927e-02       4.895802960933e+03 
       5.115611921608e-02       4.861514679524e+03 
       5.163907577182e-02       4.826624744269e+03 
       5.214629778177e-02       4.791215295428e+03 
       5.268052867832e-02       4.754986120463e+03 
       5.324495589638e-02       4.718045588588e+03 
       5.384330215613e-02       4.680185731909e+03 
       5.447993831049e-02       4.641329765392e+03 
       5.516002281028e-02       4.601259312260e+03 
       5.588967347556e-02       4.559788306240e+03 
       5.667617728526e-02       4.516587605522e+03 
       5.752824238763e-02       4.471482405245e+03 
       5.845629166292e-02       4.423898910029e+03 
       5.947278550584e-02       4.373241816930e+03 
       6.059253702404e-02       4.318905761479e+03 
       6.183293616966e-02       4.259637525030e+03 
