# Matter power spectrum P(k) at redshift z=0.5
# for k=1.045e-05 to 8.48825 h/Mpc,
# number of wavenumbers equal to 612
#    1:k (h/Mpc)              2:P (Mpc/h)^3        
       1.045004358465e-05       3.107074180030e+01 
       2.333095830364e-05       6.727779871893e+01 
       3.625717138197e-05       1.028088534972e+02 
       4.926346170446e-05       1.380631608231e+02 
       6.238518340034e-05       1.732654253236e+02 
       7.565858108432e-05       2.085825494367e+02 
       8.912111517766e-05       2.441562872128e+02 
       1.028118016360e-04       2.801165835331e+02 
       1.167715704439e-04       3.165883697034e+02 
       1.310436472695e-04       3.536956625922e+02 
       1.456739626796e-04       3.915643804993e+02 
       1.607115932535e-04       4.303245201765e+02 
       1.762092387588e-04       4.701119999529e+02 
       1.922237391794e-04       5.110703302371e+02 
       2.088166347275e-04       5.533522060418e+02 
       2.260547708937e-04       5.971210765039e+02 
       2.440109489228e-04       6.425527122694e+02 
       2.627646196243e-04       6.898367787443e+02 
       2.824026148746e-04       7.391784142970e+02 
       3.030199061975e-04       7.907997752031e+02 
       3.247203730558e-04       8.449415065845e+02 
       3.476175545344e-04       9.018640642866e+02 
       3.718353465748e-04       9.618487848693e+02 
       3.975085925723e-04       1.025198567456e+03 
       4.247834979996e-04       1.092237985939e+03 
       4.538177802962e-04       1.163312614417e+03 
       4.847804449377e-04       1.238787303839e+03 
       5.178510599038e-04       1.319043102590e+03 
       5.532183878397e-04       1.404472537169e+03 
       5.910782339040e-04       1.495472928442e+03 
       6.316303850249e-04       1.592437570779e+03 
       6.750745609842e-04       1.695744655684e+03 
       7.216053758473e-04       1.805744107468e+03 
       7.714064215132e-04       1.922742753376e+03 
       8.246437268604e-04       2.046988623961e+03 
       8.814589978991e-04       2.178655443157e+03 
       9.419631766204e-04       2.317828736890e+03 
       1.006230932013e-03       2.464495020484e+03 
       1.074296682416e-03       2.618535359071e+03 
       1.146152626855e-03       2.779724344659e+03 
       1.221749044348e-03       2.947734806413e+03 
       1.300996843579e-03       3.122148020383e+03 
       1.383772069420e-03       3.302459829844e+03 
       1.469921856686e-03       3.488107091280e+03 
       1.559271205766e-03       3.678510550150e+03 
       1.651629950110e-03       3.873054861182e+03 
       1.746799373907e-03       4.071121143536e+03 
       1.844578083652e-03       4.272101673716e+03 
       1.944766900247e-03       4.475411410886e+03 
       2.047172686846e-03       4.680496306531e+03 
       2.151611143041e-03       4.886839075987e+03 
       2.257908672078e-03       5.093962393558e+03 
       2.365903467808e-03       5.301430920549e+03 
       2.475445979787e-03       5.508849893703e+03 
       2.586398907712e-03       5.715865572837e+03 
       2.698636858273e-03       5.922162015663e+03 
       2.812045774843e-03       6.127460313912e+03 
       2.926522227346e-03       6.331511693025e+03 
       3.041972628545e-03       6.534100253089e+03 
       3.158312425015e-03       6.735035706585e+03 
       3.275465296538e-03       6.934153234865e+03 
       3.393362386273e-03       7.131308976128e+03 
       3.511941575581e-03       7.326380080843e+03 
       3.631146811106e-03       7.519259473411e+03 
       3.750927487358e-03       7.709856500078e+03 
       3.871237885001e-03       7.898093317293e+03 
       3.992036663108e-03       8.083904589694e+03 
       4.113286402413e-03       8.267236557693e+03 
       4.234953195938e-03       8.448041675717e+03 
       4.357006283050e-03       8.626284460419e+03 
       4.479417722957e-03       8.801934729558e+03 
       4.602162103782e-03       8.974970262652e+03 
       4.725216283514e-03       9.145372910699e+03 
       4.848559159457e-03       9.313131146398e+03 
       4.972171463028e-03       9.478236869476e+03 
       5.096035577095e-03       9.640687815144e+03 
       5.220135373297e-03       9.777632622899e+03 
       5.344456067073e-03       9.933868954527e+03 
       5.468984088379e-03       1.008749360968e+04 
       5.593706966285e-03       1.023848679152e+04 
       5.718613225869e-03       1.038676132701e+04 
       5.843692296004e-03       1.053231270175e+04 
       5.968934426788e-03       1.067530157057e+04 
       6.094330615523e-03       1.081571098845e+04 
       6.219872540296e-03       1.095357497861e+04 
       6.345552500285e-03       1.108888789342e+04 
       6.471363362067e-03       1.122169881905e+04 
       6.597298511245e-03       1.135196278215e+04 
       6.723351808830e-03       1.147972846217e+04 
       6.849517551848e-03       1.160503393090e+04 
       6.975790437733e-03       1.172791886976e+04 
       7.102165532088e-03       1.184836172495e+04 
       7.228638239473e-03       1.196680140724e+04 
       7.355204276895e-03       1.208251826892e+04 
       7.481859649730e-03       1.219550732285e+04 
       7.608600629819e-03       1.230645997290e+04 
       7.735423735528e-03       1.241565269899e+04 
       7.862325713566e-03       1.252204081313e+04 
       7.989303522403e-03       1.262622027440e+04 
       8.116354317107e-03       1.272815770425e+04 
       8.243475435493e-03       1.282785391083e+04 
       8.370664385430e-03       1.292535891449e+04 
       8.497918833217e-03       1.302084686099e+04 
       8.625236592919e-03       1.311404234509e+04 
       8.752615616576e-03       1.320511507649e+04 
       8.880053985201e-03       1.329408583425e+04 
       9.007549900508e-03       1.338099385734e+04 
       9.135101677287e-03       1.346562056322e+04 
       9.262707736385e-03       1.354848459793e+04 
       9.390366598231e-03       1.362947393960e+04 
       9.518076876860e-03       1.370804729762e+04 
       9.645837274391e-03       1.378520438362e+04 
       9.773646575931e-03       1.385955615940e+04 
       9.901503644852e-03       1.393317364298e+04 
       1.002940741843e-02       1.400404278375e+04 
       1.015735690378e-02       1.407336735712e+04 
       1.028535117414e-02       1.414097415529e+04 
       1.041338936539e-02       1.420633823498e+04 
       1.054147067279e-02       1.427033085071e+04 
       1.066959434803e-02       1.433233288519e+04 
       1.079775969644e-02       1.439254902760e+04 
       1.092596607441e-02       1.445103165566e+04 
       1.105421288699e-02       1.450742867853e+04 
       1.118249958563e-02       1.456223694152e+04 
       1.131082566619e-02       1.461561394371e+04 
       1.143919066690e-02       1.466730214273e+04 
       1.156759416669e-02       1.471795796792e+04 
       1.169603578339e-02       1.476601000489e+04 
       1.182451517231e-02       1.481325780094e+04 
       1.195303202469e-02       1.485849438596e+04 
       1.208158606644e-02       1.490214197318e+04 
       1.221017705681e-02       1.494426719227e+04 
       1.233880478731e-02       1.498486472905e+04 
       1.246746908058e-02       1.502397244885e+04 
       1.259616978942e-02       1.506156079659e+04 
       1.272490679583e-02       1.509726999793e+04 
       1.285368001017e-02       1.513232194732e+04 
       1.298248937038e-02       1.516553403752e+04 
       1.311133484117e-02       1.519731441131e+04 
       1.324021641342e-02       1.522723095092e+04 
       1.336913410352e-02       1.525628654427e+04 
       1.349808795276e-02       1.528436447841e+04 
       1.362707802683e-02       1.531061282192e+04 
       1.375610441532e-02       1.533502579617e+04 
       1.388516723129e-02       1.535869964440e+04 
       1.401426661081e-02       1.538120103632e+04 
       1.414340271265e-02       1.540223626375e+04 
       1.427257571792e-02       1.542229142433e+04 
       1.440178582977e-02       1.544080768974e+04 
       1.453103327311e-02       1.545802870120e+04 
       1.466031829438e-02       1.547409982736e+04 
       1.478964116137e-02       1.548859430715e+04 
       1.491900216301e-02       1.550255589006e+04 
       1.504840160920e-02       1.551503073320e+04 
       1.517783983073e-02       1.552634576184e+04 
       1.530731717916e-02       1.553646195637e+04 
       1.543683402673e-02       1.554553753128e+04 
       1.556639076630e-02       1.555345084795e+04 
       1.569598781137e-02       1.556022635821e+04 
       1.582562559600e-02       1.556601826357e+04 
       1.595530457487e-02       1.557064070053e+04 
       1.608502522327e-02       1.557425835711e+04 
       1.621478803722e-02       1.557683354949e+04 
       1.634459353345e-02       1.557793319913e+04 
       1.647444224958e-02       1.557884449910e+04 
       1.660433474414e-02       1.557839013407e+04 
       1.673427159678e-02       1.557693867177e+04 
       1.686425340835e-02       1.557410696045e+04 
       1.699428080111e-02       1.557106299286e+04 
       1.712435441886e-02       1.556639524125e+04 
       1.725447492718e-02       1.556114155188e+04 
       1.738464301363e-02       1.555531712984e+04 
       1.751485938798e-02       1.554790106298e+04 
       1.764512478243e-02       1.554019894696e+04 
       1.777543995193e-02       1.553092560053e+04 
       1.790580567440e-02       1.552116171737e+04 
       1.803622275109e-02       1.551107553327e+04 
       1.816669200684e-02       1.549917052303e+04 
       1.829721429042e-02       1.548705424180e+04 
       1.842779047491e-02       1.547388939027e+04 
       1.855842145803e-02       1.546045795819e+04 
       1.868910816253e-02       1.544588017494e+04 
       1.881985153660e-02       1.543043006777e+04 
       1.895065255427e-02       1.541422440429e+04 
       1.908151221584e-02       1.539727669232e+04 
       1.921243154835e-02       1.537937027032e+04 
       1.934341160602e-02       1.536086159267e+04 
       1.947445347077e-02       1.534204681013e+04 
       1.960555825268e-02       1.532187378944e+04 
       1.973672709056e-02       1.530175107410e+04 
       1.986796115246e-02       1.528010540065e+04 
       1.999926163623e-02       1.525817367995e+04 
       2.013062977012e-02       1.523570489312e+04 
       2.026206681336e-02       1.521257711822e+04 
       2.039357405681e-02       1.518874539612e+04 
       2.052515282356e-02       1.516453294865e+04 
       2.065680446963e-02       1.513943635802e+04 
       2.078853038464e-02       1.511359435890e+04 
       2.092033199250e-02       1.508735322133e+04 
       2.105221075219e-02       1.506057433896e+04 
       2.118416815845e-02       1.503347826499e+04 
       2.131620574262e-02       1.500549408572e+04 
       2.144832507339e-02       1.497665233786e+04 
       2.158052775766e-02       1.494769368699e+04 
       2.171281544139e-02       1.491805839646e+04 
       2.184518981047e-02       1.488790881037e+04 
       2.197765259164e-02       1.485762492810e+04 
       2.211020555343e-02       1.482620954805e+04 
       2.224285050711e-02       1.479462831962e+04 
       2.237558930770e-02       1.476255147442e+04 
       2.250842385501e-02       1.472987980686e+04 
       2.264135609466e-02       1.469690712130e+04 
       2.277438801924e-02       1.466346337287e+04 
       2.290752166936e-02       1.462961428509e+04 
       2.304075913487e-02       1.459555840907e+04 
       2.317410255604e-02       1.456046387917e+04 
       2.330755412480e-02       1.452531130821e+04 
       2.344111608601e-02       1.448971768913e+04 
       2.357479073879e-02       1.445407103615e+04 
       2.370858043787e-02       1.441737711608e+04 
       2.384248759499e-02       1.438070077050e+04 
       2.397651468034e-02       1.434384667766e+04 
       2.411066422407e-02       1.430612455796e+04 
       2.424493881783e-02       1.426821317214e+04 
       2.437934111633e-02       1.423007413714e+04 
       2.451387383901e-02       1.419185306735e+04 
       2.464853977174e-02       1.415302005585e+04 
       2.478334176854e-02       1.411360687257e+04 
       2.491828275342e-02       1.407444381612e+04 
       2.505336572221e-02       1.403438637838e+04 
       2.518859374453e-02       1.399437960069e+04 
       2.532396996575e-02       1.395425836115e+04 
       2.545949760907e-02       1.391343473569e+04 
       2.559517997761e-02       1.387252546990e+04 
       2.573102045669e-02       1.383159713212e+04 
       2.586702251600e-02       1.379021932430e+04 
       2.600318971206e-02       1.374849276199e+04 
       2.613952569055e-02       1.370640331547e+04 
       2.627603418892e-02       1.366441239688e+04 
       2.641271903892e-02       1.362202798701e+04 
       2.654958416936e-02       1.357951121354e+04 
       2.668663360886e-02       1.353650453474e+04 
       2.682387148875e-02       1.349368916008e+04 
       2.696130204606e-02       1.345043233029e+04 
       2.709892962664e-02       1.340697598824e+04 
       2.723675868836e-02       1.336333798337e+04 
       2.737479380444e-02       1.331965194820e+04 
       2.751303966691e-02       1.327570753461e+04 
       2.765150109016e-02       1.323160984469e+04 
       2.779018301472e-02       1.318727854980e+04 
       2.792909051104e-02       1.314271630467e+04 
       2.806822878352e-02       1.309812437591e+04 
       2.820760317466e-02       1.305342734939e+04 
       2.834721916939e-02       1.300850813142e+04 
       2.848708239949e-02       1.296350646690e+04 
       2.862719864828e-02       1.291830826476e+04 
       2.876757385545e-02       1.287303598272e+04 
       2.890821412206e-02       1.282766570389e+04 
       2.904912571580e-02       1.278219413908e+04 
       2.919031507636e-02       1.273659000762e+04 
       2.933178882113e-02       1.269098995822e+04 
       2.947355375108e-02       1.264503568589e+04 
       2.961561685685e-02       1.259920705541e+04 
       2.975798532515e-02       1.255315498420e+04 
       2.990066654541e-02       1.250721571036e+04 
       3.004366811665e-02       1.246097962534e+04 
       3.018699785478e-02       1.241478960755e+04 
       3.033066380005e-02       1.236854257629e+04 
       3.047467422493e-02       1.232213469570e+04 
       3.061903764232e-02       1.227590554932e+04 
       3.076376281406e-02       1.222929213354e+04 
       3.090885875989e-02       1.218276682530e+04 
       3.105433476679e-02       1.213620710635e+04 
       3.120020039870e-02       1.208960341201e+04 
       3.134646550675e-02       1.204303735417e+04 
       3.149314023990e-02       1.199633748479e+04 
       3.164023505612e-02       1.194969140418e+04 
       3.178776073406e-02       1.190283852699e+04 
       3.193572838529e-02       1.185611180456e+04 
       3.208414946714e-02       1.180935473930e+04 
       3.223303579609e-02       1.176244930201e+04 
       3.238239956191e-02       1.171572527042e+04 
       3.253225334243e-02       1.166885146899e+04 
       3.268261011904e-02       1.162188472961e+04 
       3.283348329301e-02       1.157508438934e+04 
       3.298488670259e-02       1.152823899115e+04 
       3.313683464103e-02       1.148131740063e+04 
       3.328934187547e-02       1.143438788386e+04 
       3.344242366689e-02       1.138762145513e+04 
       3.359609579103e-02       1.134067961732e+04 
       3.375037456053e-02       1.129375649872e+04 
       3.390527684814e-02       1.124705310280e+04 
       3.406082011128e-02       1.120005044335e+04 
       3.421702241794e-02       1.115324513988e+04 
       3.437390247395e-02       1.110648110778e+04 
       3.453147965192e-02       1.105962914268e+04 
       3.468977402169e-02       1.101286161738e+04 
       3.484880638259e-02       1.096607132237e+04 
       3.500859829758e-02       1.091932200163e+04 
       3.516917212940e-02       1.087259194226e+04 
       3.533055107886e-02       1.082589312428e+04 
       3.549275922540e-02       1.077926102967e+04 
       3.565582157023e-02       1.073252515854e+04 
       3.581976408199e-02       1.068590630561e+04 
       3.598461374536e-02       1.063929737340e+04 
       3.615039861271e-02       1.059271256185e+04 
       3.631714785906e-02       1.054621664528e+04 
       3.648489184058e-02       1.049959981224e+04 
       3.665366215692e-02       1.045320292516e+04 
       3.682349171774e-02       1.040666141040e+04 
       3.699441481367e-02       1.036022842366e+04 
       3.716646719210e-02       1.031394838500e+04 
       3.733968613823e-02       1.026748480919e+04 
       3.751411056177e-02       1.022110823243e+04 
       3.768978108986e-02       1.017479986882e+04 
       3.786674016657e-02       1.012842789073e+04 
       3.804503215979e-02       1.008215560576e+04 
       3.822470347586e-02       1.003592849581e+04 
       3.840580268302e-02       9.989643238068e+03 
       3.858838064404e-02       9.943399241811e+03 
       3.877249065931e-02       9.897234617039e+03 
       3.895818862096e-02       9.850990962619e+03 
       3.914553317941e-02       9.804836497869e+03 
       3.933458592328e-02       9.758651957092e+03 
       3.952541157417e-02       9.712536733050e+03 
       3.971807819759e-02       9.666362512950e+03 
       3.991265743180e-02       9.620254887541e+03 
       4.010922473646e-02       9.574126341458e+03 
       4.030785966288e-02       9.528005864359e+03 
       4.050864614847e-02       9.481804905999e+03 
       4.071167283779e-02       9.435652978982e+03 
       4.091703343322e-02       9.389535513609e+03 
       4.112482707841e-02       9.343342009396e+03 
       4.133515877846e-02       9.297147918778e+03 
       4.154813986079e-02       9.250923503314e+03 
       4.176388848168e-02       9.204589233588e+03 
       4.198253018382e-02       9.158289973083e+03 
       4.220419851120e-02       9.112006099268e+03 
       4.242903568833e-02       9.065574112239e+03 
       4.265719337197e-02       9.019191032925e+03 
       4.288883348483e-02       8.972645471389e+03 
       4.312412914181e-02       8.926119362955e+03 
       4.336326568147e-02       8.879331876700e+03 
       4.360644181685e-02       8.832645188518e+03 
       4.385387092265e-02       8.785732152305e+03 
       4.410578247799e-02       8.738780583581e+03 
       4.436242368764e-02       8.691682845175e+03 
       4.462406130828e-02       8.644434092452e+03 
       4.489098371107e-02       8.597088574531e+03 
       4.516350321751e-02       8.549562856857e+03 
       4.544195875207e-02       8.501838740914e+03 
       4.572671886360e-02       8.453911918281e+03 
       4.601818517708e-02       8.405829774692e+03 
       4.631679634960e-02       8.357463344512e+03 
       4.662303261929e-02       8.308964884573e+03 
       4.693742105388e-02       8.260047536285e+03 
       4.726054162823e-02       8.210886185497e+03 
       4.759303428806e-02       8.161523994542e+03 
       4.793560719149e-02       8.111581636958e+03 
       4.828904636352e-02       8.061421530975e+03 
       4.865422705274e-02       8.010787381916e+03 
       4.903212714816e-02       7.959694453516e+03 
       4.942384310017e-02       7.908089021241e+03 
       4.983060889991e-02       7.855703131904e+03 
       5.025381881014e-02       7.802894111066e+03 
       5.069505471927e-02       7.749445607956e+03 
       5.115611921608e-02       7.695126039613e+03 
       5.163907577182e-02       7.639944378150e+03 
       5.214629778177e-02       7.584026590773e+03 
       5.268052867832e-02       7.526754842896e+03 
       5.324495589638e-02       7.468299168528e+03 
       5.384330215613e-02       7.408475554884e+03 
       5.447993831049e-02       7.346953721830e+03 
       5.516002281028e-02       7.283683877106e+03 
       5.588967347556e-02       7.217940731581e+03 
       5.667617728526e-02       7.149707114476e+03 
       5.752824238763e-02       7.078393262358e+03 
       5.845629166292e-02       7.003119332545e+03 
       5.947278550584e-02       6.923087304140e+03 
       6.059253702404e-02       6.837233604129e+03 
       6.183293616966e-02       6.743681780098e+03 
