# Matter power spectrum P(k) at redshift z=0
# for k=1.045e-05 to 8.48825 h/Mpc,
# number of wavenumbers equal to 612
#    1:k (h/Mpc)              2:P (Mpc/h)^3        
       1.045004358465e-05       5.246581297044e+01 
       2.333095830364e-05       1.136047256074e+02 
       3.625717138197e-05       1.736019845608e+02 
       4.926346170446e-05       2.331317056490e+02 
       6.238518340034e-05       2.925732406382e+02 
       7.565858108432e-05       3.522083257537e+02 
       8.912111517766e-05       4.122762395174e+02 
       1.028118016360e-04       4.729962932191e+02 
       1.167715704439e-04       5.345793318067e+02 
       1.310436472695e-04       5.972346362482e+02 
       1.456739626796e-04       6.611746831877e+02 
       1.607115932535e-04       7.266188145202e+02 
       1.762092387588e-04       7.937963475156e+02 
       1.922237391794e-04       8.629493895465e+02 
       2.088166347275e-04       9.343355253678e+02 
       2.260547708937e-04       1.008230461926e+03 
       2.440109489228e-04       1.084930664540e+03 
       2.627646196243e-04       1.164756017103e+03 
       2.824026148746e-04       1.248052473247e+03 
       3.030199061975e-04       1.335194660643e+03 
       3.247203730558e-04       1.426588364107e+03 
       3.476175545344e-04       1.522672751493e+03 
       3.718353465748e-04       1.623922190074e+03 
       3.975085925723e-04       1.730847384223e+03 
       4.247834979996e-04       1.843995597270e+03 
       4.538177802962e-04       1.963949523186e+03 
       4.847804449377e-04       2.091324409425e+03 
       5.178510599038e-04       2.226762913959e+03 
       5.532183878397e-04       2.370927194116e+03 
       5.910782339040e-04       2.524487676862e+03 
       6.316303850249e-04       2.688108287227e+03 
       6.750745609842e-04       2.862427787266e+03 
       7.216053758473e-04       3.048037604329e+03 
       7.714064215132e-04       3.245456796135e+03 
       8.246437268604e-04       3.455105464118e+03 
       8.814589978991e-04       3.677278381292e+03 
       9.419631766204e-04       3.912121330051e+03 
       1.006230932013e-03       4.159612543657e+03 
       1.074296682416e-03       4.419551677529e+03 
       1.146152626855e-03       4.691558000904e+03 
       1.221749044348e-03       4.975078520422e+03 
       1.300996843579e-03       5.269405612442e+03 
       1.383772069420e-03       5.573687751524e+03 
       1.469921856686e-03       5.886974435161e+03 
       1.559271205766e-03       6.208288499893e+03 
       1.651629950110e-03       6.536592126842e+03 
       1.746799373907e-03       6.870841366063e+03 
       1.844578083652e-03       7.210010596182e+03 
       1.944766900247e-03       7.553112060354e+03 
       2.047172686846e-03       7.899210136773e+03 
       2.151611143041e-03       8.247431484213e+03 
       2.257908672078e-03       8.596970527924e+03 
       2.365903467808e-03       8.947092836158e+03 
       2.475445979787e-03       9.297132383760e+03 
       2.586398907712e-03       9.646492185203e+03 
       2.698636858273e-03       9.994638859915e+03 
       2.812045774843e-03       1.034110146367e+04 
       2.926522227346e-03       1.068546001783e+04 
       3.041972628545e-03       1.102735020711e+04 
       3.158312425015e-03       1.136645094435e+04 
       3.275465296538e-03       1.170248419196e+04 
       3.393362386273e-03       1.203520711048e+04 
       3.511941575581e-03       1.236441224232e+04 
       3.631146811106e-03       1.268991882467e+04 
       3.750927487358e-03       1.301157377245e+04 
       3.871237885001e-03       1.332924584074e+04 
       3.992036663108e-03       1.364282471098e+04 
       4.113286402413e-03       1.395221960810e+04 
       4.234953195938e-03       1.425735027967e+04 
       4.357006283050e-03       1.455815682604e+04 
       4.479417722957e-03       1.485458829892e+04 
       4.602162103782e-03       1.514660722913e+04 
       4.725216283514e-03       1.543417869334e+04 
       4.848559159457e-03       1.571725202438e+04 
       4.972171463028e-03       1.599588968988e+04 
       5.096035577095e-03       1.627002572641e+04 
       5.220135373297e-03       1.647799507929e+04 
       5.344456067073e-03       1.674078187571e+04 
       5.468984088379e-03       1.699905529906e+04 
       5.593706966285e-03       1.725286499846e+04 
       5.718613225869e-03       1.750221070218e+04 
       5.843692296004e-03       1.774661438869e+04 
       5.968934426788e-03       1.798709173719e+04 
       6.094330615523e-03       1.822317083069e+04 
       6.219872540296e-03       1.845489275875e+04 
       6.345552500285e-03       1.868228630630e+04 
       6.471363362067e-03       1.890534386871e+04 
       6.597298511245e-03       1.912413833642e+04 
       6.723351808830e-03       1.933877746544e+04 
       6.849517551848e-03       1.954916360470e+04 
       6.975790437733e-03       1.975554618311e+04 
       7.102165532088e-03       1.995781048815e+04 
       7.228638239473e-03       2.015598876826e+04 
       7.355204276895e-03       2.035002760373e+04 
       7.481859649730e-03       2.054061034921e+04 
       7.608600629819e-03       2.072677558274e+04 
       7.735423735528e-03       2.090949844508e+04 
       7.862325713566e-03       2.108788535049e+04 
       7.989303522403e-03       2.126253045444e+04 
       8.116354317107e-03       2.143348892535e+04 
       8.243475435493e-03       2.160039837493e+04 
       8.370664385430e-03       2.176408122513e+04 
       8.497918833217e-03       2.192468020236e+04 
       8.625236592919e-03       2.208085990704e+04 
       8.752615616576e-03       2.223349601228e+04 
       8.880053985201e-03       2.238257845069e+04 
       9.007549900508e-03       2.252817545593e+04 
       9.135101677287e-03       2.266941818710e+04 
       9.262707736385e-03       2.280820153753e+04 
       9.390366598231e-03       2.294434091895e+04 
       9.518076876860e-03       2.307569027633e+04 
       9.645837274391e-03       2.320498621702e+04 
       9.773646575931e-03       2.332922948258e+04 
       9.901503644852e-03       2.345257850894e+04 
       1.002940741843e-02       2.357068939927e+04 
       1.015735690378e-02       2.368649738942e+04 
       1.028535117414e-02       2.380008281781e+04 
       1.041338936539e-02       2.390880140788e+04 
       1.054147067279e-02       2.401625157015e+04 
       1.066959434803e-02       2.411995386310e+04 
       1.079775969644e-02       2.422043423048e+04 
       1.092596607441e-02       2.431803079218e+04 
       1.105421288699e-02       2.441218367135e+04 
       1.118249958563e-02       2.450404600422e+04 
       1.131082566619e-02       2.459250515184e+04 
       1.143919066690e-02       2.467928344513e+04 
       1.156759416669e-02       2.476341031531e+04 
       1.169603578339e-02       2.484349105061e+04 
       1.182451517231e-02       2.492227447624e+04 
       1.195303202469e-02       2.499755543240e+04 
       1.208158606644e-02       2.507028659794e+04 
       1.221017705681e-02       2.514026797742e+04 
       1.233880478731e-02       2.520792811821e+04 
       1.246746908058e-02       2.527303562561e+04 
       1.259616978942e-02       2.533543662692e+04 
       1.272490679583e-02       2.539407506725e+04 
       1.285368001017e-02       2.545289551307e+04 
       1.298248937038e-02       2.550801207707e+04 
       1.311133484117e-02       2.556066992284e+04 
       1.324021641342e-02       2.560982402475e+04 
       1.336913410352e-02       2.565781450936e+04 
       1.349808795276e-02       2.570498032250e+04 
       1.362707802683e-02       2.574830663289e+04 
       1.375610441532e-02       2.578827753738e+04 
       1.388516723129e-02       2.582716965363e+04 
       1.401426661081e-02       2.586416074726e+04 
       1.414340271265e-02       2.589928291965e+04 
       1.427257571792e-02       2.593238251587e+04 
       1.440178582977e-02       2.596286590946e+04 
       1.453103327311e-02       2.599090409709e+04 
       1.466031829438e-02       2.601736763441e+04 
       1.478964116137e-02       2.604076339084e+04 
       1.491900216301e-02       2.606370590453e+04 
       1.504840160920e-02       2.608402654236e+04 
       1.517783983073e-02       2.610223128999e+04 
       1.530731717916e-02       2.611830366267e+04 
       1.543683402673e-02       2.613303637759e+04 
       1.556639076630e-02       2.614574128834e+04 
       1.569598781137e-02       2.615619975382e+04 
       1.582562559600e-02       2.616523788185e+04 
       1.595530457487e-02       2.617229320170e+04 
       1.608502522327e-02       2.617804142522e+04 
       1.621478803722e-02       2.618169840663e+04 
       1.634459353345e-02       2.618251405624e+04 
       1.647444224958e-02       2.618345108702e+04 
       1.660433474414e-02       2.618203897906e+04 
       1.673427159678e-02       2.617880376722e+04 
       1.686425340835e-02       2.617331826190e+04 
       1.699428080111e-02       2.616787881091e+04 
       1.712435441886e-02       2.615873170820e+04 
       1.725447492718e-02       2.614924228356e+04 
       1.738464301363e-02       2.613937957126e+04 
       1.751485938798e-02       2.612583020208e+04 
       1.764512478243e-02       2.611265524198e+04 
       1.777543995193e-02       2.609602130954e+04 
       1.790580567440e-02       2.607943360004e+04 
       1.803622275109e-02       2.606139819094e+04 
       1.816669200684e-02       2.604118456069e+04 
       1.829721429042e-02       2.601956040578e+04 
       1.842779047491e-02       2.599743065295e+04 
       1.855842145803e-02       2.597397004312e+04 
       1.868910816253e-02       2.594886417850e+04 
       1.881985153660e-02       2.592214611249e+04 
       1.895065255427e-02       2.589419710539e+04 
       1.908151221584e-02       2.586525744625e+04 
       1.921243154835e-02       2.583467279419e+04 
       1.934341160602e-02       2.580310927768e+04 
       1.947445347077e-02       2.577064963994e+04 
       1.960555825268e-02       2.573605153963e+04 
       1.973672709056e-02       2.570181359036e+04 
       1.986796115246e-02       2.566506943485e+04 
       1.999926163623e-02       2.562759181934e+04 
       2.013062977012e-02       2.558922068589e+04 
       2.026206681336e-02       2.554973683066e+04 
       2.039357405681e-02       2.550890519474e+04 
       2.052515282356e-02       2.546799498760e+04 
       2.065680446963e-02       2.542513731860e+04 
       2.078853038464e-02       2.538116177076e+04 
       2.092033199250e-02       2.533628968148e+04 
       2.105221075219e-02       2.529071238695e+04 
       2.118416815845e-02       2.524483205993e+04 
       2.131620574262e-02       2.519718769641e+04 
       2.144832507339e-02       2.514817974438e+04 
       2.158052775766e-02       2.509922440998e+04 
       2.171281544139e-02       2.504866382108e+04 
       2.184518981047e-02       2.499750262101e+04 
       2.197765259164e-02       2.494613353598e+04 
       2.211020555343e-02       2.489283439475e+04 
       2.224285050711e-02       2.483925873328e+04 
       2.237558930770e-02       2.478486835365e+04 
       2.250842385501e-02       2.472964884140e+04 
       2.264135609466e-02       2.467370915151e+04 
       2.277438801924e-02       2.461695893945e+04 
       2.290752166936e-02       2.455960141048e+04 
       2.304075913487e-02       2.450192503536e+04 
       2.317410255604e-02       2.444252651637e+04 
       2.330755412480e-02       2.438304878988e+04 
       2.344111608601e-02       2.432282585275e+04 
       2.357479073879e-02       2.426240623886e+04 
       2.370858043787e-02       2.420039663662e+04 
       2.384248759499e-02       2.413822532445e+04 
       2.397651468034e-02       2.407588342296e+04 
       2.411066422407e-02       2.401206433171e+04 
       2.424493881783e-02       2.394812826735e+04 
       2.437934111633e-02       2.388362775522e+04 
       2.451387383901e-02       2.381872793608e+04 
       2.464853977174e-02       2.375322125294e+04 
       2.478334176854e-02       2.368662666502e+04 
       2.491828275342e-02       2.362043112908e+04 
       2.505336572221e-02       2.355279141001e+04 
       2.518859374453e-02       2.348520662152e+04 
       2.532396996575e-02       2.341730870741e+04 
       2.545949760907e-02       2.334840386838e+04 
       2.559517997761e-02       2.327931871979e+04 
       2.573102045669e-02       2.321003041356e+04 
       2.586702251600e-02       2.314012095953e+04 
       2.600318971206e-02       2.306972558254e+04 
       2.613952569055e-02       2.299874092896e+04 
       2.627603418892e-02       2.292773514707e+04 
       2.641271903892e-02       2.285620160746e+04 
       2.654958416936e-02       2.278441695477e+04 
       2.668663360886e-02       2.271185797179e+04 
       2.682387148875e-02       2.263948721259e+04 
       2.696130204606e-02       2.256655507727e+04 
       2.709892962664e-02       2.249326601157e+04 
       2.723675868836e-02       2.241961843197e+04 
       2.737479380444e-02       2.234586306054e+04 
       2.751303966691e-02       2.227168558453e+04 
       2.765150109016e-02       2.219733476899e+04 
       2.779018301472e-02       2.212259051994e+04 
       2.792909051104e-02       2.204745173276e+04 
       2.806822878352e-02       2.197218290018e+04 
       2.820760317466e-02       2.189686905489e+04 
       2.834721916939e-02       2.182104921781e+04 
       2.848708239949e-02       2.174508546261e+04 
       2.862719864828e-02       2.166898034223e+04 
       2.876757385545e-02       2.159265767716e+04 
       2.890821412206e-02       2.151613662970e+04 
       2.904912571580e-02       2.143944661668e+04 
       2.919031507636e-02       2.136260742915e+04 
       2.933178882113e-02       2.128573055665e+04 
       2.947355375108e-02       2.120830115372e+04 
       2.961561685685e-02       2.113099408530e+04 
       2.975798532515e-02       2.105343044829e+04 
       2.990066654541e-02       2.097594087708e+04 
       3.004366811665e-02       2.089807894867e+04 
       3.018699785478e-02       2.082020139266e+04 
       3.033066380005e-02       2.074227555610e+04 
       3.047467422493e-02       2.066410679863e+04 
       3.061903764232e-02       2.058614260558e+04 
       3.076376281406e-02       2.050767645045e+04 
       3.090885875989e-02       2.042928284985e+04 
       3.105433476679e-02       2.035085367388e+04 
       3.120020039870e-02       2.027234456849e+04 
       3.134646550675e-02       2.019388778619e+04 
       3.149314023990e-02       2.011530923950e+04 
       3.164023505612e-02       2.003663539114e+04 
       3.178776073406e-02       1.995775881376e+04 
       3.193572838529e-02       1.987900506273e+04 
       3.208414946714e-02       1.980026663736e+04 
       3.223303579609e-02       1.972131342572e+04 
       3.238239956191e-02       1.964259687578e+04 
       3.253225334243e-02       1.956367850962e+04 
       3.268261011904e-02       1.948463068195e+04 
       3.283348329301e-02       1.940589166962e+04 
       3.298488670259e-02       1.932693986470e+04 
       3.313683464103e-02       1.924794995620e+04 
       3.328934187547e-02       1.916898036713e+04 
       3.344242366689e-02       1.909019479946e+04 
       3.359609579103e-02       1.901121182345e+04 
       3.375037456053e-02       1.893222874670e+04 
       3.390527684814e-02       1.885357107438e+04 
       3.406082011128e-02       1.877453793708e+04 
       3.421702241794e-02       1.869577277609e+04 
       3.437390247395e-02       1.861703969182e+04 
       3.453147965192e-02       1.853820485596e+04 
       3.468977402169e-02       1.845950794416e+04 
       3.484880638259e-02       1.838077637177e+04 
       3.500859829758e-02       1.830210651665e+04 
       3.516917212940e-02       1.822348549042e+04 
       3.533055107886e-02       1.814491752107e+04 
       3.549275922540e-02       1.806643521121e+04 
       3.565582157023e-02       1.798784016827e+04 
       3.581976408199e-02       1.790942260461e+04 
       3.598461374536e-02       1.783101305986e+04 
       3.615039861271e-02       1.775265904329e+04 
       3.631714785906e-02       1.767443270589e+04 
       3.648489184058e-02       1.759604969867e+04 
       3.665366215692e-02       1.751799425437e+04 
       3.682349171774e-02       1.743974830296e+04 
       3.699441481367e-02       1.736166139885e+04 
       3.716646719210e-02       1.728379972091e+04 
       3.733968613823e-02       1.720568038647e+04 
       3.751411056177e-02       1.712770474382e+04 
       3.768978108986e-02       1.704984690930e+04 
       3.786674016657e-02       1.697191877682e+04 
       3.804503215979e-02       1.689409993710e+04 
       3.822470347586e-02       1.681639998015e+04 
       3.840580268302e-02       1.673863429568e+04 
       3.858838064404e-02       1.666087864310e+04 
       3.877249065931e-02       1.658328145056e+04 
       3.895818862096e-02       1.650560406908e+04 
       3.914553317941e-02       1.642802496205e+04 
       3.933458592328e-02       1.635043258221e+04 
       3.952541157417e-02       1.627291317231e+04 
       3.971807819759e-02       1.619535470512e+04 
       3.991265743180e-02       1.611786566863e+04 
       4.010922473646e-02       1.604037735616e+04 
       4.030785966288e-02       1.596290551321e+04 
       4.050864614847e-02       1.588533016634e+04 
       4.071167283779e-02       1.580781759519e+04 
       4.091703343322e-02       1.573034414362e+04 
       4.112482707841e-02       1.565280606169e+04 
       4.133515877846e-02       1.557520791439e+04 
       4.154813986079e-02       1.549759249718e+04 
       4.176388848168e-02       1.541984720184e+04 
       4.198253018382e-02       1.534212670888e+04 
       4.220419851120e-02       1.526441334385e+04 
       4.242903568833e-02       1.518651874299e+04 
       4.265719337197e-02       1.510864317556e+04 
       4.288883348483e-02       1.503054255556e+04 
       4.312412914181e-02       1.495246086843e+04 
       4.336326568147e-02       1.487397850641e+04 
       4.360644181685e-02       1.479566883748e+04 
       4.385387092265e-02       1.471704074590e+04 
       4.410578247799e-02       1.463825499453e+04 
       4.436242368764e-02       1.455931376750e+04 
       4.462406130828e-02       1.448013935269e+04 
       4.489098371107e-02       1.440079996274e+04 
       4.516350321751e-02       1.432119745814e+04 
       4.544195875207e-02       1.424117692430e+04 
       4.572671886360e-02       1.416090585829e+04 
       4.601818517708e-02       1.408038952721e+04 
       4.631679634960e-02       1.399941954767e+04 
       4.662303261929e-02       1.391822606818e+04 
       4.693742105388e-02       1.383643513916e+04 
       4.726054162823e-02       1.375418340962e+04 
       4.759303428806e-02       1.367163055859e+04 
       4.793560719149e-02       1.358808347948e+04 
       4.828904636352e-02       1.350428739590e+04 
       4.865422705274e-02       1.341958058725e+04 
       4.903212714816e-02       1.333437998651e+04 
       4.942384310017e-02       1.324821866832e+04 
       4.983060889991e-02       1.316068106760e+04 
       5.025381881014e-02       1.307256946002e+04 
       5.069505471927e-02       1.298375857054e+04 
       5.115611921608e-02       1.289296817474e+04 
       5.163907577182e-02       1.280110544162e+04 
       5.214629778177e-02       1.270825679679e+04 
       5.268052867832e-02       1.261311602534e+04 
       5.324495589638e-02       1.251575728450e+04 
       5.384330215613e-02       1.241674381799e+04 
       5.447993831049e-02       1.231439317647e+04 
       5.516002281028e-02       1.221008728187e+04 
       5.588967347556e-02       1.210112003181e+04 
       5.667617728526e-02       1.198858775382e+04 
       5.752824238763e-02       1.187101040492e+04 
       5.845629166292e-02       1.174710237799e+04 
       5.947278550584e-02       1.161548843777e+04 
       6.059253702404e-02       1.147462445187e+04 
       6.183293616966e-02       1.132128459827e+04 
