# Halofit, tahahashi 
#  k, P(k)
1.027950000000000043e-05 4.090030000000000143e+01
1.034699999999999936e-05 4.115950000000000131e+01
1.041499999999999939e-05 4.142049999999999699e+01
1.048340000000000029e-05 4.168289999999999651e+01
1.055230000000000060e-05 4.194729999999999137e+01
1.062160000000000008e-05 4.221309999999999718e+01
1.069140000000000067e-05 4.248080000000000211e+01
1.076170000000000066e-05 4.275030000000000996e+01
1.083239999999999983e-05 4.302129999999999654e+01
1.090349999999999988e-05 4.329370000000000118e+01
1.097519999999999954e-05 4.356839999999999691e+01
1.104730000000000009e-05 4.384459999999999980e+01
1.111979999999999982e-05 4.412219999999999942e+01
1.119289999999999917e-05 4.440209999999999724e+01
1.126639999999999940e-05 4.468339999999999890e+01
1.134049999999999925e-05 4.496699999999999875e+01
1.141499999999999998e-05 4.525200000000000244e+01
1.149000000000000010e-05 4.553889999999999816e+01
1.156549999999999964e-05 4.582759999999999678e+01
1.164140000000000004e-05 4.611780000000000257e+01
1.171790000000000007e-05 4.641020000000000323e+01
1.179489999999999951e-05 4.670450000000000301e+01
1.187240000000000003e-05 4.700059999999999860e+01
1.195039999999999997e-05 4.729859999999999332e+01
1.202889999999999930e-05 4.759829999999999472e+01
1.210789999999999973e-05 4.789999999999999858e+01
1.218749999999999978e-05 4.820380000000000109e+01
1.226759999999999923e-05 4.850950000000000273e+01
1.234819999999999978e-05 4.881700000000000017e+01
1.242929999999999973e-05 4.912639999999999674e+01
1.251099999999999931e-05 4.943800000000000239e+01
1.259319999999999998e-05 4.975139999999999674e+01
1.267590000000000005e-05 5.006660000000000110e+01
1.275919999999999974e-05 5.038409999999998945e+01
1.284300000000000053e-05 5.070340000000000202e+01
1.292739999999999925e-05 5.102490000000000236e+01
1.301230000000000076e-05 5.134819999999999851e+01
1.309780000000000019e-05 5.167379999999999285e+01
1.318380000000000073e-05 5.200119999999999720e+01
1.327049999999999941e-05 5.233109999999999928e+01
1.335769999999999918e-05 5.266290000000000049e+01
1.344540000000000005e-05 5.299649999999999750e+01
1.353380000000000076e-05 5.333270000000000266e+01
1.362269999999999918e-05 5.367080000000000695e+01
1.371220000000000061e-05 5.401100000000000989e+01
1.380229999999999997e-05 5.435340000000000060e+01
1.389290000000000043e-05 5.469769999999998333e+01
1.398420000000000072e-05 5.504449999999999932e+01
1.407610000000000064e-05 5.539359999999999928e+01
1.416860000000000017e-05 5.574479999999999791e+01
1.426169999999999933e-05 5.609819999999999851e+01
1.435539999999999981e-05 5.645389999999999020e+01
1.444969999999999991e-05 5.681170000000000186e+01
1.454459999999999962e-05 5.717170000000000130e+01
1.464019999999999918e-05 5.753430000000000177e+01
1.473629999999999984e-05 5.789869999999999806e+01
1.483320000000000055e-05 5.826599999999999824e+01
1.493060000000000067e-05 5.863519999999999754e+01
1.502870000000000063e-05 5.900690000000000168e+01
1.512750000000000043e-05 5.938119999999999976e+01
1.522679999999999963e-05 5.975730000000000075e+01
1.532690000000000059e-05 6.013640000000000185e+01
1.542760000000000116e-05 6.051760000000000872e+01
1.552889999999999967e-05 6.090100000000000335e+01
1.563099999999999993e-05 6.128740000000000521e+01
1.573370000000000150e-05 6.167590000000000572e+01
1.583700000000000101e-05 6.206659999999999400e+01
1.594109999999999887e-05 6.246030000000000371e+01
1.604580000000000145e-05 6.285609999999999786e+01
1.615119999999999878e-05 6.325450000000000017e+01
1.625730000000000103e-05 6.365540000000000020e+01
1.636420000000000165e-05 6.405929999999999325e+01
1.647170000000000020e-05 6.446540000000000248e+01
1.657990000000000028e-05 6.487399999999999523e+01
1.668879999999999851e-05 6.528509999999999991e+01
1.679849999999999849e-05 6.569920000000000471e+01
1.690879999999999979e-05 6.611539999999999395e+01
1.701989999999999946e-05 6.653459999999999752e+01
1.713170000000000065e-05 6.695629999999999882e+01
1.724430000000000022e-05 6.738089999999999691e+01
1.735760000000000132e-05 6.780809999999999604e+01
1.747160000000000057e-05 6.823779999999999291e+01
1.758640000000000157e-05 6.867040000000000077e+01
1.770200000000000094e-05 6.910589999999999122e+01
1.781829999999999845e-05 6.954399999999999693e+01
1.793530000000000089e-05 6.998460000000000036e+01
1.805319999999999852e-05 7.042850000000001387e+01
1.817180000000000108e-05 7.087500000000001421e+01
1.829119999999999862e-05 7.132429999999999382e+01
1.841130000000000108e-05 7.177620000000000289e+01
1.853229999999999873e-05 7.223130000000000450e+01
1.865410000000000153e-05 7.268940000000000623e+01
1.877659999999999909e-05 7.314999999999999147e+01
1.889999999999999862e-05 7.361369999999999436e+01
1.902409999999999968e-05 7.408010000000000161e+01
1.914909999999999933e-05 7.454970000000000141e+01
1.927490000000000073e-05 7.502209999999999468e+01
1.940160000000000072e-05 7.549800000000000466e+01
1.952899999999999886e-05 7.597620000000000573e+01
1.965739999999999919e-05 7.645820000000000505e+01
1.978650000000000105e-05 7.694270000000000209e+01
1.991650000000000150e-05 7.743030000000000257e+01
2.004730000000000032e-05 7.792100000000000648e+01
2.017910000000000133e-05 7.841530000000000200e+01
2.031160000000000048e-05 7.891190000000000282e+01
2.044509999999999844e-05 7.941239999999999100e+01
2.057940000000000154e-05 7.991570000000000107e+01
2.071459999999999984e-05 8.042230000000000700e+01
2.085070000000000011e-05 8.093210000000000548e+01
2.098769999999999897e-05 8.144519999999998561e+01
2.112559999999999980e-05 8.196160000000000423e+01
2.126439999999999922e-05 8.248099999999999454e+01
2.140410000000000061e-05 8.300400000000000489e+01
2.154470000000000059e-05 8.353010000000000446e+01
2.168629999999999937e-05 8.405979999999999563e+01
2.182869999999999990e-05 8.459239999999999782e+01
2.197219999999999946e-05 8.512899999999999068e+01
2.211650000000000077e-05 8.566840000000000543e+01
2.226180000000000089e-05 8.621150000000000091e+01
2.240809999999999981e-05 8.675820000000000221e+01
2.255530000000000070e-05 8.730809999999999604e+01
2.270350000000000040e-05 8.786159999999999570e+01
2.285259999999999868e-05 8.841830000000000211e+01
2.300279999999999938e-05 8.897910000000000252e+01
2.315389999999999866e-05 8.954300000000000637e+01
2.330600000000000014e-05 9.011060000000000514e+01
2.345920000000000064e-05 9.068210000000001969e+01
2.361329999999999972e-05 9.125690000000000168e+01
2.376840000000000100e-05 9.183530000000001792e+01
2.392460000000000130e-05 9.241759999999999309e+01
2.408180000000000040e-05 9.300350000000000250e+01
2.423999999999999831e-05 9.359300000000000352e+01
2.439919999999999841e-05 9.418609999999999616e+01
2.455950000000000093e-05 9.478320000000000789e+01
2.472089999999999908e-05 9.538420000000000698e+01
2.488329999999999942e-05 9.598879999999999768e+01
2.504679999999999878e-05 9.659739999999999327e+01
2.521140000000000056e-05 9.720990000000000464e+01
2.537700000000000115e-05 9.782599999999999341e+01
2.554370000000000075e-05 9.844610000000000127e+01
2.571149999999999938e-05 9.907009999999999650e+01
2.588050000000000065e-05 9.969840000000000657e+01
2.605050000000000071e-05 1.003299999999999983e+02
2.622170000000000002e-05 1.009659999999999798e+02
2.639390000000000152e-05 1.016059999999999945e+02
2.656729999999999888e-05 1.022510000000000048e+02
2.674189999999999887e-05 1.028989999999999867e+02
2.691760000000000127e-05 1.035510000000000161e+02
2.709439999999999931e-05 1.042069999999999936e+02
2.727239999999999997e-05 1.048679999999999808e+02
2.745159999999999988e-05 1.055330000000000155e+02
2.763199999999999904e-05 1.062019999999999982e+02
2.781350000000000060e-05 1.068750000000000000e+02
2.799630000000000163e-05 1.075529999999999973e+02
2.818020000000000168e-05 1.082339999999999947e+02
2.836530000000000098e-05 1.089200000000000017e+02
2.855169999999999974e-05 1.096110000000000042e+02
2.873930000000000112e-05 1.103059999999999974e+02
2.892809999999999837e-05 1.110049999999999955e+02
2.911810000000000163e-05 1.117079999999999984e+02
2.930950000000000119e-05 1.124159999999999968e+02
2.950199999999999977e-05 1.131290000000000333e+02
2.969580000000000120e-05 1.138459999999999894e+02
2.989089999999999870e-05 1.145669999999999931e+02
3.008729999999999906e-05 1.152939999999999969e+02
3.028499999999999888e-05 1.160250000000000057e+02
3.048400000000000155e-05 1.167600000000000051e+02
3.068430000000000029e-05 1.175000000000000142e+02
3.088590000000000188e-05 1.182450000000000045e+02
3.108879999999999955e-05 1.189950000000000045e+02
3.129300000000000007e-05 1.197489999999999952e+02
3.149859999999999688e-05 1.205079999999999956e+02
3.170559999999999676e-05 1.212720000000000056e+02
3.191389999999999949e-05 1.220409999999999968e+02
3.212349999999999830e-05 1.228139999999999930e+02
3.233460000000000040e-05 1.235930000000000035e+02
3.254699999999999857e-05 1.243759999999999906e+02
3.276090000000000003e-05 1.251650000000000063e+02
3.297609999999999756e-05 1.259579999999999984e+02
3.319279999999999838e-05 1.267570000000000050e+02
3.341080000000000205e-05 1.275599999999999881e+02
3.363030000000000224e-05 1.283689999999999714e+02
3.385129999999999894e-05 1.291829999999999927e+02
3.407369999999999870e-05 1.300020000000000095e+02
3.429760000000000176e-05 1.308259999999999934e+02
3.452290000000000111e-05 1.316550000000000011e+02
3.474969999999999698e-05 1.324900000000000091e+02
3.497800000000000290e-05 1.333300000000000125e+02
3.520779999999999857e-05 1.341750000000000114e+02
3.543909999999999752e-05 1.350249999999999773e+02
3.567199999999999999e-05 1.358809999999999718e+02
3.590629999999999874e-05 1.367419999999999902e+02
3.614220000000000101e-05 1.376090000000000089e+02
3.637970000000000000e-05 1.384809999999999945e+02
3.661870000000000229e-05 1.393590000000000089e+02
3.685930000000000131e-05 1.402419999999999902e+02
3.710149999999999706e-05 1.411310000000000002e+02
3.734520000000000287e-05 1.420260000000000105e+02
3.759059999999999886e-05 1.429259999999999877e+02
3.783749999999999814e-05 1.438319999999999936e+02
3.808610000000000115e-05 1.447439999999999998e+02
3.833640000000000111e-05 1.456620000000000061e+02
3.858819999999999758e-05 1.465840000000000032e+02
3.884179999999999800e-05 1.475140000000000100e+02
3.909690000000000170e-05 1.484490000000000123e+02
3.935380000000000258e-05 1.493899999999999864e+02
3.961240000000000041e-05 1.503369999999999891e+02
3.987260000000000175e-05 1.512899999999999920e+02
4.013460000000000026e-05 1.522489999999999952e+02
4.039830000000000249e-05 1.532139999999999702e+02
4.066370000000000168e-05 1.541850000000000023e+02
4.093079999999999782e-05 1.551620000000000061e+02
4.119979999999999812e-05 1.561459999999999866e+02
4.147040000000000193e-05 1.571349999999999909e+02
4.174290000000000314e-05 1.581309999999999718e+02
4.201720000000000151e-05 1.591339999999999861e+02
4.229319999999999683e-05 1.601430000000000007e+02
4.257110000000000310e-05 1.611579999999999870e+02
4.285079999999999976e-05 1.621790000000000020e+02
4.313230000000000037e-05 1.632069999999999936e+02
4.341569999999999837e-05 1.642419999999999902e+02
4.370090000000000031e-05 1.652829999999999870e+02
4.398799999999999965e-05 1.663300000000000125e+02
4.427700000000000315e-05 1.673839999999999861e+02
4.456789999999999726e-05 1.684449999999999932e+02
4.486070000000000232e-05 1.695130000000000052e+02
4.515549999999999821e-05 1.705879999999999939e+02
4.545209999999999805e-05 1.716690000000000111e+02
4.575080000000000249e-05 1.727570000000000050e+02
4.605129999999999733e-05 1.738520000000000039e+02
4.635389999999999677e-05 1.749540000000000077e+02
4.665840000000000037e-05 1.760629999999999882e+02
4.696500000000000181e-05 1.771790000000000020e+02
4.727360000000000085e-05 1.783019999999999925e+02
4.758409999999999729e-05 1.794319999999999879e+02
4.789679999999999854e-05 1.805699999999999648e+02
4.821139999999999719e-05 1.817150000000000034e+02
4.852820000000000067e-05 1.828660000000000139e+02
4.884700000000000175e-05 1.840260000000000105e+02
4.916800000000000088e-05 1.851919999999999789e+02
4.949099999999999761e-05 1.863660000000000139e+02
4.981609999999999896e-05 1.875469999999999970e+02
5.014339999999999835e-05 1.887359999999999900e+02
5.047290000000000256e-05 1.899319999999999879e+02
5.080449999999999783e-05 1.911359999999999957e+02
5.113829999999999792e-05 1.923480000000000132e+02
5.147420000000000261e-05 1.935660000000000025e+02
5.181239999999999880e-05 1.947940000000000111e+02
5.215279999999999981e-05 1.960279999999999916e+02
5.249549999999999909e-05 1.972700000000000102e+02
5.284040000000000319e-05 1.985210000000000150e+02
5.318749999999999856e-05 1.997790000000000248e+02
5.353699999999999919e-05 2.010450000000000159e+02
5.388869999999999788e-05 2.023199999999999932e+02
5.424280000000000182e-05 2.036019999999999754e+02
5.459909999999999704e-05 2.048920000000000243e+02
5.495789999999999774e-05 2.061909999999999741e+02
5.531890000000000326e-05 2.074979999999999905e+02
5.568240000000000071e-05 2.088129999999999882e+02
5.604820000000000320e-05 2.101359999999999957e+02
5.641639999999999741e-05 2.114680000000000177e+02
5.678709999999999710e-05 2.128080000000000211e+02
5.716020000000000204e-05 2.141570000000000107e+02
5.753569999999999870e-05 2.155139999999999816e+02
5.791370000000000084e-05 2.168799999999999955e+02
5.829420000000000169e-05 2.182539999999999907e+02
5.867720000000000124e-05 2.196379999999999768e+02
5.906269999999999950e-05 2.210300000000000011e+02
5.945079999999999668e-05 2.224310000000000116e+02
5.984139999999999935e-05 2.238410000000000082e+02
6.023450000000000071e-05 2.252589999999999861e+02
6.063030000000000123e-05 2.266870000000000118e+02
6.102860000000000045e-05 2.281239999999999952e+02
6.142959999999999881e-05 2.295699999999999932e+02
6.183320000000000287e-05 2.310250000000000057e+02
6.223939999999999909e-05 2.324890000000000043e+02
6.264829999999999444e-05 2.339619999999999891e+02
6.305990000000000250e-05 2.354459999999999980e+02
6.347419999999999614e-05 2.369379999999999882e+02
6.389120000000000248e-05 2.384399999999999693e+02
6.431100000000000141e-05 2.399509999999999650e+02
6.473349999999999948e-05 2.414710000000000321e+02
6.515880000000000370e-05 2.430020000000000095e+02
6.558690000000000049e-05 2.445419999999999732e+02
6.601780000000000343e-05 2.460920000000000414e+02
6.645160000000000595e-05 2.476519999999999584e+02
6.688809999999999407e-05 2.492210000000000036e+02
6.732760000000000231e-05 2.508009999999999877e+02
6.776990000000000314e-05 2.523899999999999295e+02
6.821519999999999700e-05 2.539899999999999807e+02
6.866340000000000399e-05 2.555999999999999943e+02
6.911449999999999701e-05 2.572200000000000273e+02
6.956859999999999661e-05 2.588499999999999659e+02
7.002559999999999579e-05 2.604899999999999523e+02
7.048569999999999499e-05 2.621410000000000196e+02
7.094880000000000078e-05 2.638020000000000209e+02
7.141489999999999958e-05 2.654739999999999895e+02
7.188409999999999841e-05 2.671560000000000059e+02
7.235639999999999726e-05 2.688489999999999895e+02
7.283179999999999613e-05 2.705529999999999973e+02
7.331029999999999502e-05 2.722679999999999723e+02
7.379189999999999393e-05 2.739930000000000518e+02
7.427669999999999986e-05 2.757289999999999850e+02
7.476469999999999926e-05 2.774769999999999754e+02
7.525590000000000567e-05 2.792350000000000136e+02
7.575039999999999898e-05 2.810049999999999955e+02
7.624800000000000588e-05 2.827860000000000014e+02
7.674900000000000667e-05 2.845779999999999745e+02
7.725320000000000093e-05 2.863809999999999718e+02
7.776080000000000264e-05 2.881960000000000264e+02
7.827170000000000481e-05 2.900230000000000246e+02
7.878589999999999389e-05 2.918609999999999900e+02
7.930350000000000398e-05 2.937099999999999795e+02
7.982460000000000141e-05 2.955720000000000027e+02
8.034899999999999931e-05 2.974449999999999932e+02
8.087689999999999810e-05 2.993299999999999841e+02
8.140829999999999779e-05 3.012269999999999754e+02
8.194310000000000493e-05 3.031360000000000241e+02
8.248150000000000642e-05 3.050570000000000164e+02
8.302339999999999525e-05 3.069900000000000091e+02
8.356890000000000553e-05 3.089359999999999786e+02
8.411790000000000315e-05 3.108929999999999154e+02
8.467060000000000211e-05 3.128639999999999759e+02
8.522680000000000197e-05 3.148460000000000036e+02
8.578679999999999661e-05 3.168410000000000082e+02
8.635039999999999914e-05 3.188489999999999895e+02
8.691770000000000301e-05 3.208690000000000282e+02
8.748880000000000166e-05 3.229019999999999868e+02
8.806360000000000164e-05 3.249490000000000123e+02
8.864210000000000297e-05 3.270079999999999814e+02
8.922450000000000606e-05 3.290790000000000077e+02
8.981070000000000394e-05 3.311650000000000205e+02
9.040080000000000359e-05 3.332639999999999532e+02
9.099469999999999802e-05 3.353750000000000000e+02
9.159260000000000123e-05 3.375000000000000568e+02
9.219429999999999921e-05 3.396379999999999768e+02
9.280000000000000597e-05 3.417909999999999968e+02
9.340969999999999438e-05 3.439560000000000173e+02
9.402340000000000513e-05 3.461349999999999909e+02
9.464120000000000453e-05 3.483290000000000077e+02
9.526299999999999915e-05 3.505360000000000582e+02
9.588880000000000255e-05 3.527570000000000050e+02
9.651880000000000160e-05 3.549920000000000186e+02
9.715290000000000286e-05 3.572410000000000423e+02
9.779119999999999978e-05 3.595049999999999955e+02
9.843370000000000591e-05 3.617819999999999823e+02
9.908039999999999415e-05 3.640740000000000123e+02
9.973139999999999859e-05 3.663819999999999482e+02
1.003869999999999996e-04 3.687040000000000077e+02
1.010459999999999944e-04 3.710380000000000109e+02
1.017100000000000003e-04 3.733890000000000100e+02
1.023780000000000013e-04 3.757549999999999955e+02
1.030509999999999998e-04 3.781360000000000241e+02
1.037279999999999935e-04 3.805320000000000391e+02
1.044089999999999960e-04 3.829409999999999741e+02
1.050949999999999958e-04 3.853670000000000755e+02
1.057860000000000067e-04 3.878109999999999786e+02
1.064809999999999992e-04 3.902679999999999154e+02
1.071800000000000004e-04 3.927379999999999995e+02
1.078850000000000013e-04 3.952289999999999850e+02
1.085929999999999952e-04 3.977300000000000182e+02
1.093070000000000023e-04 4.002520000000000095e+02
1.100250000000000045e-04 4.027869999999999209e+02
1.107480000000000042e-04 4.053389999999999418e+02
1.114760000000000013e-04 4.079080000000000723e+02
1.122079999999999936e-04 4.104909999999999854e+02
1.129449999999999969e-04 4.130910000000000650e+02
1.136869999999999976e-04 4.157069999999999368e+02
1.144339999999999957e-04 4.183410000000000082e+02
1.151860000000000047e-04 4.209909999999999854e+02
1.159429999999999977e-04 4.236589999999999350e+02
1.167039999999999994e-04 4.263389999999999986e+02
1.174710000000000007e-04 4.290400000000000205e+02
1.182429999999999994e-04 4.317590000000000146e+02
1.190199999999999955e-04 4.344940000000000282e+02
1.198020000000000026e-04 4.372460000000000377e+02
1.205889999999999935e-04 4.400160000000000764e+02
1.213809999999999954e-04 4.428009999999999877e+02
1.221790000000000105e-04 4.456080000000000041e+02
1.229810000000000072e-04 4.484270000000000209e+02
1.237889999999999900e-04 4.512679999999999723e+02
1.246030000000000130e-04 4.541290000000000191e+02
1.254209999999999906e-04 4.570029999999999859e+02
1.262450000000000085e-04 4.598969999999999914e+02
1.270750000000000124e-04 4.628120000000000118e+02
1.279099999999999866e-04 4.657440000000000282e+02
1.287500000000000124e-04 4.686920000000000073e+02
1.295959999999999972e-04 4.716610000000000014e+02
1.304470000000000065e-04 4.746469999999999914e+02
1.313040000000000019e-04 4.776530000000000769e+02
1.321670000000000104e-04 4.806789999999999736e+02
1.330349999999999892e-04 4.837219999999999800e+02
1.339090000000000083e-04 4.867850000000000250e+02
1.347890000000000134e-04 4.898690000000000850e+02
1.356750000000000046e-04 4.929730000000000132e+02
1.365659999999999932e-04 4.960939999999999941e+02
1.374629999999999949e-04 4.992340000000000373e+02
1.383660000000000098e-04 5.023949999999999818e+02
1.392759999999999994e-04 5.055799999999999841e+02
