# Halofit, tahahashi 
#  k, P(k)
1.027950000000000043e-05 3.177080000000000126e+01
1.034699999999999936e-05 3.197209999999999752e+01
1.041499999999999939e-05 3.217479999999999052e+01
1.048340000000000029e-05 3.237870000000000203e+01
1.055230000000000060e-05 3.258400000000000318e+01
1.062160000000000008e-05 3.279050000000000153e+01
1.069140000000000067e-05 3.299839999999999662e+01
1.076170000000000066e-05 3.320779999999999887e+01
1.083239999999999983e-05 3.341830000000000211e+01
1.090349999999999988e-05 3.362989999999999924e+01
1.097519999999999954e-05 3.384329999999999927e+01
1.104730000000000009e-05 3.405780000000000740e+01
1.111979999999999982e-05 3.427349999999999852e+01
1.119289999999999917e-05 3.449090000000000344e+01
1.126639999999999940e-05 3.470940000000000225e+01
1.134049999999999925e-05 3.492969999999999686e+01
1.141499999999999998e-05 3.515109999999999957e+01
1.149000000000000010e-05 3.537400000000000233e+01
1.156549999999999964e-05 3.559819999999999851e+01
1.164140000000000004e-05 3.582359999999999900e+01
1.171790000000000007e-05 3.605080000000000240e+01
1.179489999999999951e-05 3.627940000000000964e+01
1.187240000000000003e-05 3.650939999999999941e+01
1.195039999999999997e-05 3.674080000000000013e+01
1.202889999999999930e-05 3.697370000000000090e+01
1.210789999999999973e-05 3.720799999999999841e+01
1.218749999999999978e-05 3.744400000000000261e+01
1.226759999999999923e-05 3.768149999999999977e+01
1.234819999999999978e-05 3.792029999999999035e+01
1.242929999999999973e-05 3.816069999999999851e+01
1.251099999999999931e-05 3.840269999999999584e+01
1.259319999999999998e-05 3.864609999999999701e+01
1.267590000000000005e-05 3.889099999999999824e+01
1.275919999999999974e-05 3.913759999999999906e+01
1.284300000000000053e-05 3.938559999999999661e+01
1.292739999999999925e-05 3.963539999999999708e+01
1.301230000000000076e-05 3.988649999999999807e+01
1.309780000000000019e-05 4.013940000000000197e+01
1.318380000000000073e-05 4.039370000000000260e+01
1.327049999999999941e-05 4.064999999999999858e+01
1.335769999999999918e-05 4.090780000000000172e+01
1.344540000000000005e-05 4.116689999999999827e+01
1.353380000000000076e-05 4.142810000000000770e+01
1.362269999999999918e-05 4.169069999999999254e+01
1.371220000000000061e-05 4.195490000000000208e+01
1.380229999999999997e-05 4.222090000000000032e+01
1.389290000000000043e-05 4.248839999999999861e+01
1.398420000000000072e-05 4.275780000000000314e+01
1.407610000000000064e-05 4.302890000000000015e+01
1.416860000000000017e-05 4.330170000000000385e+01
1.426169999999999933e-05 4.357630000000000337e+01
1.435539999999999981e-05 4.385249999999999915e+01
1.444969999999999991e-05 4.413049999999999784e+01
1.454459999999999962e-05 4.441009999999999991e+01
1.464019999999999918e-05 4.469180000000000064e+01
1.473629999999999984e-05 4.497480000000000189e+01
1.483320000000000055e-05 4.526019999999999754e+01
1.493060000000000067e-05 4.554690000000000083e+01
1.502870000000000063e-05 4.583570000000000277e+01
1.512750000000000043e-05 4.612650000000000006e+01
1.522679999999999963e-05 4.641859999999999786e+01
1.532690000000000059e-05 4.671300000000000097e+01
1.542760000000000116e-05 4.700919999999999987e+01
1.552889999999999967e-05 4.730700000000000216e+01
1.563099999999999993e-05 4.760710000000000264e+01
1.573370000000000150e-05 4.790890000000000271e+01
1.583700000000000101e-05 4.821240000000000236e+01
1.594109999999999887e-05 4.851819999999999311e+01
1.604580000000000145e-05 4.882570000000000476e+01
1.615119999999999878e-05 4.913519999999999754e+01
1.625730000000000103e-05 4.944659999999999656e+01
1.636420000000000165e-05 4.976030000000000086e+01
1.647170000000000020e-05 5.007569999999999766e+01
1.657990000000000028e-05 5.039309999999998979e+01
1.668879999999999851e-05 5.071249999999999858e+01
1.679849999999999849e-05 5.103410000000000224e+01
1.690879999999999979e-05 5.135750000000000171e+01
1.701989999999999946e-05 5.168310000000000315e+01
1.713170000000000065e-05 5.201059999999999661e+01
1.724430000000000022e-05 5.234049999999999869e+01
1.735760000000000132e-05 5.267229999999999990e+01
1.747160000000000057e-05 5.300610000000000355e+01
1.758640000000000157e-05 5.334210000000000207e+01
1.770200000000000094e-05 5.368050000000000210e+01
1.781829999999999845e-05 5.402079999999998705e+01
1.793530000000000089e-05 5.436300000000000665e+01
1.805319999999999852e-05 5.470780000000000598e+01
1.817180000000000108e-05 5.505459999999999354e+01
1.829119999999999862e-05 5.540370000000000061e+01
1.841130000000000108e-05 5.575469999999999970e+01
1.853229999999999873e-05 5.610819999999999652e+01
1.865410000000000153e-05 5.646399999999999864e+01
1.877659999999999909e-05 5.682180000000000319e+01
1.889999999999999862e-05 5.718200000000000216e+01
1.902409999999999968e-05 5.754429999999999978e+01
1.914909999999999933e-05 5.790910000000000224e+01
1.927490000000000073e-05 5.827609999999999957e+01
1.940160000000000072e-05 5.864569999999999084e+01
1.952899999999999886e-05 5.901720000000000965e+01
1.965739999999999919e-05 5.939159999999999684e+01
1.978650000000000105e-05 5.976789999999999736e+01
1.991650000000000150e-05 6.014670000000000982e+01
2.004730000000000032e-05 6.052779999999999916e+01
2.017910000000000133e-05 6.091179999999999950e+01
2.031160000000000048e-05 6.129760000000000275e+01
2.044509999999999844e-05 6.168630000000000280e+01
2.057940000000000154e-05 6.207730000000000103e+01
2.071459999999999984e-05 6.247079999999999700e+01
2.085070000000000011e-05 6.286690000000001532e+01
2.098769999999999897e-05 6.326540000000000674e+01
2.112559999999999980e-05 6.366649999999999210e+01
2.126439999999999922e-05 6.406999999999999318e+01
2.140410000000000061e-05 6.447629999999999484e+01
2.154470000000000059e-05 6.488490000000000180e+01
2.168629999999999937e-05 6.529640000000000555e+01
2.182869999999999990e-05 6.571009999999999707e+01
2.197219999999999946e-05 6.612689999999999202e+01
2.211650000000000077e-05 6.654599999999999227e+01
2.226180000000000089e-05 6.696779999999999688e+01
2.240809999999999981e-05 6.739249999999999829e+01
2.255530000000000070e-05 6.781959999999999411e+01
2.270350000000000040e-05 6.824960000000000093e+01
2.285259999999999868e-05 6.868210000000000548e+01
2.300279999999999938e-05 6.911759999999999593e+01
2.315389999999999866e-05 6.955570000000000164e+01
2.330600000000000014e-05 6.999659999999998661e+01
2.345920000000000064e-05 7.044050000000000011e+01
2.361329999999999972e-05 7.088700000000000045e+01
2.376840000000000100e-05 7.133629999999999427e+01
2.392460000000000130e-05 7.178860000000000241e+01
2.408180000000000040e-05 7.224370000000000402e+01
2.423999999999999831e-05 7.270170000000000243e+01
2.439919999999999841e-05 7.316240000000000521e+01
2.455950000000000093e-05 7.362619999999999720e+01
2.472089999999999908e-05 7.409300000000000352e+01
2.488329999999999942e-05 7.456270000000000664e+01
2.504679999999999878e-05 7.503539999999999566e+01
2.521140000000000056e-05 7.551120000000000232e+01
2.537700000000000115e-05 7.598980000000000246e+01
2.554370000000000075e-05 7.647140000000000271e+01
2.571149999999999938e-05 7.695619999999999550e+01
2.588050000000000065e-05 7.744419999999999504e+01
2.605050000000000071e-05 7.793510000000000559e+01
2.622170000000000002e-05 7.842929999999999779e+01
2.639390000000000152e-05 7.892639999999998679e+01
2.656729999999999888e-05 7.942669999999999675e+01
2.674189999999999887e-05 7.993040000000000589e+01
2.691760000000000127e-05 8.043710000000001514e+01
2.709439999999999931e-05 8.094670000000000698e+01
2.727239999999999997e-05 8.145980000000000132e+01
2.745159999999999988e-05 8.197629999999999484e+01
2.763199999999999904e-05 8.249610000000001264e+01
2.781350000000000060e-05 8.301890000000000214e+01
2.799630000000000163e-05 8.354540000000001498e+01
2.818020000000000168e-05 8.407470000000000709e+01
2.836530000000000098e-05 8.460760000000001924e+01
2.855169999999999974e-05 8.514409999999999457e+01
2.873930000000000112e-05 8.568370000000000175e+01
2.892809999999999837e-05 8.622679999999999723e+01
2.911810000000000163e-05 8.677309999999999945e+01
2.930950000000000119e-05 8.732349999999999568e+01
2.950199999999999977e-05 8.787680000000000291e+01
2.969580000000000120e-05 8.843370000000000175e+01
2.989089999999999870e-05 8.899429999999999552e+01
3.008729999999999906e-05 8.955849999999999511e+01
3.028499999999999888e-05 9.012609999999999388e+01
3.048400000000000155e-05 9.069750000000000512e+01
3.068430000000000029e-05 9.127259999999999707e+01
3.088590000000000188e-05 9.185120000000000573e+01
3.108879999999999955e-05 9.243340000000000600e+01
3.129300000000000007e-05 9.301919999999999789e+01
3.149859999999999688e-05 9.360890000000000555e+01
3.170559999999999676e-05 9.420250000000000057e+01
3.191389999999999949e-05 9.479959999999999809e+01
3.212349999999999830e-05 9.540040000000000475e+01
3.233460000000000040e-05 9.600530000000000541e+01
3.254699999999999857e-05 9.661379999999998347e+01
3.276090000000000003e-05 9.722639999999999816e+01
3.297609999999999756e-05 9.784269999999999357e+01
3.319279999999999838e-05 9.846309999999999718e+01
3.341080000000000205e-05 9.908700000000001751e+01
3.363030000000000224e-05 9.971520000000001005e+01
3.385129999999999894e-05 1.003469999999999942e+02
3.407369999999999870e-05 1.009839999999999804e+02
3.429760000000000176e-05 1.016239999999999810e+02
3.452290000000000111e-05 1.022679999999999865e+02
3.474969999999999698e-05 1.029159999999999968e+02
3.497800000000000290e-05 1.035680000000000121e+02
3.520779999999999857e-05 1.042249999999999943e+02
3.543909999999999752e-05 1.048850000000000051e+02
3.567199999999999999e-05 1.055510000000000304e+02
3.590629999999999874e-05 1.062189999999999941e+02
3.614220000000000101e-05 1.068929999999999865e+02
3.637970000000000000e-05 1.075699999999999932e+02
3.661870000000000229e-05 1.082519999999999953e+02
3.685930000000000131e-05 1.089379999999999882e+02
3.710149999999999706e-05 1.096290000000000049e+02
3.734520000000000287e-05 1.103239999999999981e+02
3.759059999999999886e-05 1.110229999999999961e+02
3.783749999999999814e-05 1.117259999999999991e+02
3.808610000000000115e-05 1.124350000000000023e+02
3.833640000000000111e-05 1.131479999999999961e+02
3.858819999999999758e-05 1.138649999999999949e+02
3.884179999999999800e-05 1.145870000000000033e+02
3.909690000000000170e-05 1.153129999999999882e+02
3.935380000000000258e-05 1.160439999999999969e+02
3.961240000000000041e-05 1.167789999999999964e+02
3.987260000000000175e-05 1.175200000000000102e+02
4.013460000000000026e-05 1.182639999999999816e+02
4.039830000000000249e-05 1.190139999999999958e+02
4.066370000000000168e-05 1.197690000000000055e+02
4.093079999999999782e-05 1.205270000000000010e+02
4.119979999999999812e-05 1.212920000000000016e+02
4.147040000000000193e-05 1.220600000000000023e+02
4.174290000000000314e-05 1.228340000000000032e+02
4.201720000000000151e-05 1.236130000000000138e+02
4.229319999999999683e-05 1.243960000000000150e+02
4.257110000000000310e-05 1.251850000000000165e+02
4.285079999999999976e-05 1.259779999999999944e+02
4.313230000000000037e-05 1.267770000000000294e+02
4.341569999999999837e-05 1.275799999999999983e+02
4.370090000000000031e-05 1.283890000000000100e+02
4.398799999999999965e-05 1.292030000000000030e+02
4.427700000000000315e-05 1.300219999999999914e+02
4.456789999999999726e-05 1.308459999999999752e+02
4.486070000000000232e-05 1.316750000000000114e+02
4.515549999999999821e-05 1.325099999999999909e+02
4.545209999999999805e-05 1.333499999999999943e+02
4.575080000000000249e-05 1.341949999999999932e+02
4.605129999999999733e-05 1.350459999999999923e+02
4.635389999999999677e-05 1.359019999999999868e+02
4.665840000000000037e-05 1.367630000000000052e+02
4.696500000000000181e-05 1.376299999999999955e+02
4.727360000000000085e-05 1.385029999999999859e+02
4.758409999999999729e-05 1.393799999999999955e+02
4.789679999999999854e-05 1.402640000000000100e+02
4.821139999999999719e-05 1.411529999999999916e+02
4.852820000000000067e-05 1.420480000000000018e+02
4.884700000000000175e-05 1.429480000000000075e+02
4.916800000000000088e-05 1.438549999999999898e+02
4.949099999999999761e-05 1.447659999999999911e+02
4.981609999999999896e-05 1.456840000000000259e+02
5.014339999999999835e-05 1.466070000000000277e+02
5.047290000000000256e-05 1.475370000000000061e+02
5.080449999999999783e-05 1.484720000000000084e+02
5.113829999999999792e-05 1.494130000000000109e+02
5.147420000000000261e-05 1.503599999999999852e+02
5.181239999999999880e-05 1.513129999999999882e+02
5.215279999999999981e-05 1.522719999999999629e+02
5.249549999999999909e-05 1.532369999999999948e+02
5.284040000000000319e-05 1.542079999999999984e+02
5.318749999999999856e-05 1.551850000000000023e+02
5.353699999999999919e-05 1.561690000000000111e+02
5.388869999999999788e-05 1.571589999999999918e+02
5.424280000000000182e-05 1.581550000000000011e+02
5.459909999999999704e-05 1.591570000000000107e+02
5.495789999999999774e-05 1.601659999999999968e+02
5.531890000000000326e-05 1.611810000000000400e+02
5.568240000000000071e-05 1.622030000000000030e+02
5.604820000000000320e-05 1.632300000000000182e+02
5.641639999999999741e-05 1.642650000000000148e+02
5.678709999999999710e-05 1.653060000000000400e+02
5.716020000000000204e-05 1.663540000000000134e+02
5.753569999999999870e-05 1.674079999999999870e+02
5.791370000000000084e-05 1.684689999999999941e+02
5.829420000000000169e-05 1.695370000000000061e+02
5.867720000000000124e-05 1.706119999999999948e+02
5.906269999999999950e-05 1.716930000000000121e+02
5.945079999999999668e-05 1.727810000000000059e+02
5.984139999999999935e-05 1.738760000000000048e+02
6.023450000000000071e-05 1.749780000000000086e+02
6.063030000000000123e-05 1.760869999999999891e+02
6.102860000000000045e-05 1.772030000000000030e+02
6.142959999999999881e-05 1.783259999999999934e+02
6.183320000000000287e-05 1.794569999999999936e+02
6.223939999999999909e-05 1.805940000000000225e+02
6.264829999999999444e-05 1.817390000000000043e+02
6.305990000000000250e-05 1.828910000000000196e+02
6.347419999999999614e-05 1.840500000000000114e+02
6.389120000000000248e-05 1.852160000000000082e+02
6.431100000000000141e-05 1.863899999999999864e+02
6.473349999999999948e-05 1.875709999999999980e+02
6.515880000000000370e-05 1.887600000000000193e+02
6.558690000000000049e-05 1.899569999999999936e+02
6.601780000000000343e-05 1.911600000000000250e+02
6.645160000000000595e-05 1.923720000000000141e+02
6.688809999999999407e-05 1.935910000000000082e+02
6.732760000000000231e-05 1.948180000000000121e+02
6.776990000000000314e-05 1.960530000000000257e+02
6.821519999999999700e-05 1.972959999999999923e+02
6.866340000000000399e-05 1.985459999999999638e+02
6.911449999999999701e-05 1.998040000000000020e+02
6.956859999999999661e-05 2.010709999999999980e+02
7.002559999999999579e-05 2.023449999999999704e+02
7.048569999999999499e-05 2.036269999999999811e+02
7.094880000000000078e-05 2.049179999999999779e+02
7.141489999999999958e-05 2.062160000000000082e+02
7.188409999999999841e-05 2.075230000000000246e+02
7.235639999999999726e-05 2.088379999999999939e+02
7.283179999999999613e-05 2.101620000000000061e+02
7.331029999999999502e-05 2.114939999999999998e+02
7.379189999999999393e-05 2.128340000000000032e+02
7.427669999999999986e-05 2.141829999999999927e+02
7.476469999999999926e-05 2.155399999999999920e+02
7.525590000000000567e-05 2.169059999999999775e+02
7.575039999999999898e-05 2.182810000000000059e+02
7.624800000000000588e-05 2.196639999999999873e+02
7.674900000000000667e-05 2.210560000000000116e+02
7.725320000000000093e-05 2.224569999999999936e+02
7.776080000000000264e-05 2.238669999999999902e+02
7.827170000000000481e-05 2.252849999999999966e+02
7.878589999999999389e-05 2.267129999999999939e+02
7.930350000000000398e-05 2.281500000000000057e+02
7.982460000000000141e-05 2.295960000000000321e+02
8.034899999999999931e-05 2.310509999999999877e+02
8.087689999999999810e-05 2.325149999999999579e+02
8.140829999999999779e-05 2.339879999999999711e+02
8.194310000000000493e-05 2.354710000000000036e+02
8.248150000000000642e-05 2.369639999999999986e+02
8.302339999999999525e-05 2.384650000000000034e+02
8.356890000000000553e-05 2.399770000000000039e+02
8.411790000000000315e-05 2.414970000000000141e+02
8.467060000000000211e-05 2.430279999999999916e+02
8.522680000000000197e-05 2.445680000000000121e+02
8.578679999999999661e-05 2.461169999999999902e+02
8.635039999999999914e-05 2.476769999999999925e+02
8.691770000000000301e-05 2.492460000000000093e+02
8.748880000000000166e-05 2.508259999999999934e+02
8.806360000000000164e-05 2.524150000000000205e+02
8.864210000000000297e-05 2.540150000000000148e+02
8.922450000000000606e-05 2.556240000000000236e+02
8.981070000000000394e-05 2.572440000000000282e+02
9.040080000000000359e-05 2.588740000000000236e+02
9.099469999999999802e-05 2.605140000000000100e+02
9.159260000000000123e-05 2.621650000000000205e+02
9.219429999999999921e-05 2.638260000000000218e+02
9.280000000000000597e-05 2.654980000000000473e+02
9.340969999999999438e-05 2.671800000000000068e+02
9.402340000000000513e-05 2.688730000000000473e+02
9.464120000000000453e-05 2.705769999999999982e+02
9.526299999999999915e-05 2.722909999999999968e+02
9.588880000000000255e-05 2.740160000000000196e+02
9.651880000000000160e-05 2.757520000000000095e+02
9.715290000000000286e-05 2.774990000000000236e+02
9.779119999999999978e-05 2.792579999999999814e+02
9.843370000000000591e-05 2.810269999999999868e+02
9.908039999999999415e-05 2.828070000000000164e+02
9.973139999999999859e-05 2.846000000000000227e+02
1.003869999999999996e-04 2.864039999999999964e+02
1.010459999999999944e-04 2.882169999999999845e+02
1.017100000000000003e-04 2.900430000000000064e+02
1.023780000000000013e-04 2.918809999999999718e+02
1.030509999999999998e-04 2.937309999999999377e+02
1.037279999999999935e-04 2.955910000000000082e+02
1.044089999999999960e-04 2.974630000000000223e+02
1.050949999999999958e-04 2.993469999999999800e+02
1.057860000000000067e-04 3.012459999999999809e+02
1.064809999999999992e-04 3.031539999999999395e+02
1.071800000000000004e-04 3.050729999999999791e+02
1.078850000000000013e-04 3.070079999999999814e+02
1.085929999999999952e-04 3.089510000000000218e+02
1.093070000000000023e-04 3.109100000000000250e+02
1.100250000000000045e-04 3.128790000000000191e+02
1.107480000000000042e-04 3.148609999999999900e+02
1.114760000000000013e-04 3.168570000000000277e+02
1.122079999999999936e-04 3.188629999999999995e+02
1.129449999999999969e-04 3.208829999999999814e+02
1.136869999999999976e-04 3.229150000000000773e+02
1.144339999999999957e-04 3.249610000000000127e+02
1.151860000000000047e-04 3.270190000000000055e+02
1.159429999999999977e-04 3.290919999999999277e+02
1.167039999999999994e-04 3.311739999999999782e+02
1.174710000000000007e-04 3.332719999999999914e+02
1.182429999999999994e-04 3.353840000000000146e+02
1.190199999999999955e-04 3.375079999999999814e+02
1.198020000000000026e-04 3.396460000000000150e+02
1.205889999999999935e-04 3.417980000000000018e+02
1.213809999999999954e-04 3.439619999999999891e+02
1.221790000000000105e-04 3.461410000000000196e+02
1.229810000000000072e-04 3.483319999999999936e+02
1.237889999999999900e-04 3.505380000000000109e+02
1.246030000000000130e-04 3.527599999999999909e+02
1.254209999999999906e-04 3.549929999999999950e+02
1.262450000000000085e-04 3.572409999999999854e+02
1.270750000000000124e-04 3.595049999999999955e+02
1.279099999999999866e-04 3.617830000000000155e+02
1.287500000000000124e-04 3.640729999999999222e+02
1.295959999999999972e-04 3.663789999999999623e+02
1.304470000000000065e-04 3.686990000000000123e+02
1.313040000000000019e-04 3.710339999999999918e+02
1.321670000000000104e-04 3.733840000000000146e+02
1.330349999999999892e-04 3.757479999999999905e+02
1.339090000000000083e-04 3.781279999999999859e+02
1.347890000000000134e-04 3.805230000000000246e+02
1.356750000000000046e-04 3.829340000000000259e+02
1.365659999999999932e-04 3.853579999999999472e+02
1.374629999999999949e-04 3.877980000000000018e+02
1.383660000000000098e-04 3.902529999999999859e+02
1.392759999999999994e-04 3.927269999999999754e+02
