# Matter power spectrum P(k) at redshift z=1.5
# for k=1.01776e-05 to 10.8586 h/Mpc,
# number of wavenumbers equal to 728
#    1:k (h/Mpc)              2:P (Mpc/h)^3        
       1.017762622183e-05       1.323426256053e+01 
       2.270599619585e-05       2.870730102500e+01 
       3.527608514283e-05       4.391652174682e+01 
       4.791988385778e-05       5.901962733796e+01 
       6.066988421975e-05       7.410609095182e+01 
       7.355935332593e-05       8.924274898225e+01 
       8.662261594150e-05       1.044865752850e+02 
       9.989534883415e-05       1.198898921064e+02 
       1.134148905905e-04       1.355030339652e+02 
       1.272205705424e-04       1.513759440282e+02 
       1.413540604450e-04       1.675592693158e+02 
       1.558597525164e-04       1.841052061360e+02 
       1.707851673344e-04       2.010682115709e+02 
       1.861813948374e-04       2.185056468384e+02 
       2.021035712214e-04       2.364783884285e+02 
       2.186113937793e-04       2.550514294060e+02 
       2.357696745644e-04       2.742944809695e+02 
       2.536489320239e-04       2.942825779148e+02 
       2.723260172576e-04       3.150966888773e+02 
       2.918847680560e-04       3.368243219136e+02 
       3.124166791059e-04       3.595601110330e+02 
       3.340215703985e-04       3.834063619179e+02 
       3.568082276376e-04       4.084735241447e+02 
       3.808949780657e-04       4.348805438845e+02 
       4.064101524856e-04       4.627550426308e+02 
       4.334923695260e-04       4.922332451359e+02 
       4.622905620153e-04       5.234595690147e+02 
       4.929636490547e-04       5.565857732029e+02 
       5.256797433982e-04       5.917695507597e+02 
       5.606147756581e-04       6.291724488071e+02 
       5.979504195942e-04       6.689570230297e+02 
       6.378712222315e-04       7.112831401569e+02 
       6.805608847774e-04       7.563034379710e+02 
       7.261977096468e-04       8.041580029804e+02 
       7.749493255645e-04       8.549684704883e+02 
       8.269669200523e-04       9.088318569678e+02 
       8.823793310846e-04       9.658145635820e+02 
       9.412874532796e-04       1.025947082970e+03 
       1.003759470115e-03       1.089219976018e+03 
       1.069827407121e-03       1.155581541610e+03 
       1.139485399650e-03       1.224937598314e+03 
       1.212689891188e-03       1.297153403890e+03 
       1.289361754710e-03       1.372057625656e+03 
       1.369390105154e-03       1.449441015171e+03 
       1.452637391706e-03       1.529079894983e+03 
       1.538945256643e-03       1.610733817134e+03 
       1.628140633441e-03       1.694149533422e+03 
       1.720041619037e-03       1.779070968929e+03 
       1.814462767214e-03       1.865245219213e+03 
       1.911219581325e-03       1.952427441618e+03 
       2.010132108911e-03       2.040384678685e+03 
       2.111027641521e-03       2.128898413903e+03 
       2.213742593189e-03       2.217766256406e+03 
       2.318123671520e-03       2.306802628048e+03 
       2.424028471503e-03       2.395838817774e+03 
       2.531325620865e-03       2.484722570398e+03 
       2.639894593864e-03       2.573317448881e+03 
       2.749625293107e-03       2.661501960113e+03 
       2.860417480214e-03       2.749168144811e+03 
       2.972180118218e-03       2.836220916285e+03 
       3.084830672812e-03       2.922576982278e+03 
       3.198294406405e-03       3.008163417818e+03 
       3.312503688439e-03       3.092916974629e+03 
       3.427397337294e-03       3.176782663485e+03 
       3.542920003058e-03       3.259712807508e+03 
       3.659021595992e-03       3.341666741302e+03 
       3.775656762429e-03       3.422609723274e+03 
       3.892784407700e-03       3.502511384544e+03 
       4.010367264318e-03       3.581347747662e+03 
       4.128371502794e-03       3.659097224272e+03 
       4.246766381999e-03       3.735743431524e+03 
       4.365523935796e-03       3.811271928665e+03 
       4.484618692657e-03       3.885672776732e+03 
       4.604027425075e-03       3.958936991852e+03 
       4.723728925759e-03       4.031058734952e+03 
       4.843703807817e-03       4.102034797218e+03 
       4.963934326354e-03       4.171862485397e+03 
       5.084404219170e-03       4.240542779230e+03 
       5.205098564436e-03       4.308074987747e+03 
       5.326003653474e-03       4.374462498479e+03 
       5.447106876962e-03       4.439710074925e+03 
       5.568396623055e-03       4.503820156301e+03 
       5.689862186089e-03       4.566799702903e+03 
       5.811493684704e-03       4.628655027080e+03 
       5.933281988318e-03       4.689391778801e+03 
       6.055218651046e-03       4.749017217457e+03 
       6.177295852232e-03       4.807539542049e+03 
       6.299506342883e-03       4.864965512750e+03 
       6.421843397352e-03       4.921304653391e+03 
       6.544300769712e-03       4.976567839007e+03 
       6.666872654316e-03       5.030781541022e+03 
       6.789553650111e-03       5.084048600458e+03 
       6.912338728289e-03       5.136145029293e+03 
       7.035223202952e-03       5.187172553672e+03 
       7.158202704464e-03       5.237151589285e+03 
       7.281273155227e-03       5.286121239744e+03 
       7.404430747627e-03       5.334127152461e+03 
       7.527671923940e-03       5.381099258988e+03 
       7.650993358003e-03       5.427080354854e+03 
       7.774391938469e-03       5.472082576879e+03 
       7.897864753509e-03       5.516112352632e+03 
       8.021409076804e-03       5.559184045568e+03 
       8.145022354722e-03       5.601306648447e+03 
       8.268702194548e-03       5.642498337975e+03 
       8.392446353698e-03       5.682750910709e+03 
       8.516252729795e-03       5.722089881178e+03 
       8.640119351552e-03       5.760511433974e+03 
       8.764044370380e-03       5.798047508442e+03 
       8.888026052660e-03       5.834674623991e+03 
       9.012062772612e-03       5.870436359695e+03 
       9.136153005724e-03       5.905324146267e+03 
       9.260295322681e-03       5.939357473623e+03 
       9.384488383755e-03       5.972539458213e+03 
       9.508730933617e-03       6.004864991509e+03 
       9.633021796538e-03       6.036391517017e+03 
       9.757359871947e-03       6.067067466562e+03 
       9.881744130310e-03       6.096938931108e+03 
       1.000617360931e-02       6.126021347875e+03 
       1.013064741032e-02       6.154286110474e+03 
       1.025516469508e-02       6.181798692582e+03 
       1.037972468271e-02       6.208517340628e+03 
       1.050432664681e-02       6.234465919022e+03 
       1.062896991285e-02       6.259663151809e+03 
       1.075365385574e-02       6.284120789754e+03 
       1.087837789751e-02       6.307816117460e+03 
       1.100314150524e-02       6.330799255387e+03 
       1.112794418904e-02       6.353045694112e+03 
       1.125278550026e-02       6.374593662218e+03 
       1.137766502974e-02       6.395376292303e+03 
       1.150258240626e-02       6.415562863708e+03 
       1.162753729503e-02       6.435028035142e+03 
       1.175252939633e-02       6.453780855764e+03 
       1.187755844422e-02       6.471891601997e+03 
       1.200262420535e-02       6.489323310633e+03 
       1.212772647786e-02       6.506091403827e+03 
       1.225286509034e-02       6.522201845557e+03 
       1.237803990087e-02       6.537688092700e+03 
       1.250325079614e-02       6.552550646869e+03 
       1.262849769063e-02       6.566768238245e+03 
       1.275378052582e-02       6.580375928934e+03 
       1.287909926952e-02       6.593383424986e+03 
       1.300445391520e-02       6.605783445295e+03 
       1.312984448136e-02       6.617582875507e+03 
       1.325527101102e-02       6.628797528528e+03 
       1.338073357118e-02       6.639411141923e+03 
       1.350623225238e-02       6.649465524479e+03 
       1.363176716822e-02       6.658962148455e+03 
       1.375733845503e-02       6.667905610280e+03 
       1.388294627146e-02       6.676283050779e+03 
       1.400859079823e-02       6.684114377543e+03 
       1.413427223778e-02       6.691394901218e+03 
       1.425999081403e-02       6.698171326977e+03 
       1.438574677219e-02       6.704409468567e+03 
       1.451154037852e-02       6.710128236149e+03 
       1.463737192019e-02       6.715337196504e+03 
       1.476324170512e-02       6.720041740198e+03 
       1.488915006186e-02       6.724250555816e+03 
       1.501509733954e-02       6.727968683914e+03 
       1.514108390773e-02       6.731185097261e+03 
       1.526711015644e-02       6.733950179500e+03 
       1.539317649608e-02       6.736224635704e+03 
       1.551928335748e-02       6.738044914852e+03 
       1.564543119185e-02       6.739402640110e+03 
       1.577162047089e-02       6.740321073148e+03 
       1.589785168677e-02       6.740782612921e+03 
       1.602412535228e-02       6.740781925119e+03 
       1.615044200085e-02       6.740364979240e+03 
       1.627680218673e-02       6.739519176347e+03 
       1.640320648507e-02       6.738264985375e+03 
       1.652965549208e-02       6.736572322772e+03 
       1.665614982521e-02       6.734465570093e+03 
       1.678269012333e-02       6.731964971643e+03 
       1.690927704689e-02       6.728933918003e+03 
       1.703591127819e-02       6.725762274023e+03 
       1.716259352159e-02       6.722100571295e+03 
       1.728932450374e-02       6.717879185971e+03 
       1.741610497386e-02       6.713583855433e+03 
       1.754293570405e-02       6.708651538899e+03 
       1.766981748952e-02       6.703591912338e+03 
       1.779675114898e-02       6.697931245835e+03 
       1.792373752492e-02       6.692053830632e+03 
       1.805077748398e-02       6.685934336414e+03 
       1.817787191730e-02       6.679223503543e+03 
       1.830502174092e-02       6.672314096161e+03 
       1.843222789617e-02       6.665068027310e+03 
       1.855949135006e-02       6.657620868774e+03 
       1.868681309576e-02       6.649721407601e+03 
       1.881419415301e-02       6.641491199609e+03 
       1.894163556861e-02       6.632938204979e+03 
       1.906913841689e-02       6.624146559469e+03 
       1.919670380023e-02       6.614993035236e+03 
       1.932433284956e-02       6.605560946612e+03 
       1.945202672494e-02       6.595825410387e+03 
       1.957978661606e-02       6.585821720707e+03 
       1.970761374289e-02       6.575532906578e+03 
       1.983550935622e-02       6.564978021488e+03 
       1.996347473831e-02       6.554131534743e+03 
       2.009151120355e-02       6.542992525492e+03 
       2.021962009907e-02       6.531652771271e+03 
       2.034780280547e-02       6.520002573818e+03 
       2.047606073751e-02       6.508114744996e+03 
       2.060439534485e-02       6.495987013466e+03 
       2.073280811277e-02       6.483614481102e+03 
       2.086130056300e-02       6.471020378755e+03 
       2.098987425448e-02       6.458166879591e+03 
       2.111853078422e-02       6.445073356254e+03 
       2.124727178813e-02       6.431755705657e+03 
       2.137609894190e-02       6.418230441821e+03 
       2.150501396195e-02       6.404468895066e+03 
       2.163401860629e-02       6.390530241410e+03 
       2.176311467559e-02       6.376376219992e+03 
       2.189230401408e-02       6.361990387593e+03 
       2.202158851064e-02       6.347454422294e+03 
       2.215097009984e-02       6.332659082909e+03 
       2.228045076304e-02       6.317730148079e+03 
       2.241003252953e-02       6.302526969145e+03 
       2.253971747764e-02       6.287203560679e+03 
       2.266950773604e-02       6.271731843964e+03 
       2.279940548487e-02       6.256059561417e+03 
       2.292941295712e-02       6.240184628863e+03 
       2.305953243985e-02       6.224142870324e+03 
       2.318976627563e-02       6.207963073808e+03 
       2.332011686393e-02       6.191617478619e+03 
       2.345058666253e-02       6.175105267472e+03 
       2.358117818904e-02       6.158419739868e+03 
       2.371189402246e-02       6.141659376169e+03 
       2.384273680475e-02       6.124682281839e+03 
       2.397370924251e-02       6.107583968022e+03 
       2.410481410862e-02       6.090344444603e+03 
       2.423605424406e-02       6.072970479717e+03 
       2.436743255969e-02       6.055477525184e+03 
       2.449895203811e-02       6.037871979725e+03 
       2.463061573564e-02       6.020085910689e+03 
       2.476242678429e-02       6.002201209923e+03 
       2.489438839382e-02       5.984208727919e+03 
       2.502650385392e-02       5.966104134991e+03 
       2.515877653636e-02       5.947890521554e+03 
       2.529120989734e-02       5.929580903499e+03 
       2.542380747979e-02       5.911127150837e+03 
       2.555657291588e-02       5.892609312744e+03 
       2.568950992951e-02       5.873981730300e+03 
       2.582262233895e-02       5.855131759415e+03 
       2.595591405954e-02       5.836405971340e+03 
       2.608938910650e-02       5.817510512107e+03 
       2.622305159786e-02       5.798526163963e+03 
       2.635690575744e-02       5.779393399499e+03 
       2.649095591801e-02       5.760258755944e+03 
       2.662520652450e-02       5.741014509409e+03 
       2.675966213736e-02       5.721665656575e+03 
       2.689432743605e-02       5.702312360322e+03 
       2.702920722264e-02       5.682829056295e+03 
       2.716430642557e-02       5.663300512583e+03 
       2.729963010350e-02       5.643704709376e+03 
       2.743518344938e-02       5.624006473209e+03 
       2.757097179463e-02       5.604314373983e+03 
       2.770700061346e-02       5.584518031703e+03 
       2.784327552742e-02       5.564693263979e+03 
       2.797980231011e-02       5.544789523306e+03 
       2.811658689200e-02       5.524873997924e+03 
       2.825363536557e-02       5.504908997760e+03 
       2.839095399053e-02       5.484839898182e+03 
       2.852854919938e-02       5.464757854207e+03 
       2.866642760306e-02       5.444692456540e+03 
       2.880459599693e-02       5.424531742143e+03 
       2.894306136697e-02       5.404327091355e+03 
       2.908183089623e-02       5.384174233545e+03 
       2.922091197155e-02       5.363911151385e+03 
       2.936031219060e-02       5.343564934863e+03 
       2.950003936914e-02       5.323211954112e+03 
       2.964010154871e-02       5.302955540056e+03 
       2.978050700456e-02       5.282556413897e+03 
       2.992126425397e-02       5.262206816707e+03 
       3.006238206491e-02       5.241688707050e+03 
       3.020386946515e-02       5.221355330270e+03 
       3.034573575170e-02       5.200884986597e+03 
       3.048799050075e-02       5.180386073646e+03 
       3.063064357799e-02       5.159911270102e+03 
       3.077370514954e-02       5.139423141833e+03 
       3.091718569320e-02       5.118939626409e+03 
       3.106109601043e-02       5.098317191367e+03 
       3.120544723876e-02       5.077863474048e+03 
       3.135025086488e-02       5.057313398746e+03 
       3.149551873830e-02       5.036776846120e+03 
       3.164126308575e-02       5.016204482808e+03 
       3.178749652624e-02       4.995683967046e+03 
       3.193423208691e-02       4.975070203510e+03 
       3.208148321967e-02       4.954502446014e+03 
       3.222926381867e-02       4.933968548961e+03 
       3.237758823870e-02       4.913434677138e+03 
       3.252647131456e-02       4.892897866443e+03 
       3.267592838139e-02       4.872383410506e+03 
       3.282597529617e-02       4.851796399260e+03 
       3.297662846032e-02       4.831258431150e+03 
       3.312790484351e-02       4.810720805901e+03 
       3.327982200886e-02       4.790195387714e+03 
       3.343239813946e-02       4.769678327712e+03 
       3.358565206645e-02       4.749163215713e+03 
       3.373960329860e-02       4.728656966761e+03 
       3.389427205373e-02       4.708173343315e+03 
       3.404967929183e-02       4.687723833539e+03 
       3.420584675016e-02       4.667241357982e+03 
       3.436279698052e-02       4.646775932298e+03 
       3.452055338865e-02       4.626313569430e+03 
       3.467914027608e-02       4.605884635615e+03 
       3.483858288458e-02       4.585484337566e+03 
       3.499890744337e-02       4.565079750257e+03 
       3.516014121926e-02       4.544650875263e+03 
       3.532231257010e-02       4.524285604982e+03 
       3.548545100158e-02       4.503918449833e+03 
       3.564958722785e-02       4.483590101318e+03 
       3.581475323610e-02       4.463241415435e+03 
       3.598098235552e-02       4.442913793599e+03 
       3.614830933092e-02       4.422603132623e+03 
       3.631677040150e-02       4.402306414048e+03 
       3.648640338511e-02       4.382022824150e+03 
       3.665724776843e-02       4.361752057656e+03 
       3.682934480372e-02       4.341501966629e+03 
       3.700273761257e-02       4.321239030186e+03 
       3.717747129741e-02       4.301015585668e+03 
       3.735359306125e-02       4.280798725428e+03 
       3.753115233669e-02       4.260591624750e+03 
       3.771020092475e-02       4.240389385081e+03 
       3.789079314475e-02       4.220192938323e+03 
       3.807298599596e-02       4.200018634226e+03 
       3.825683933246e-02       4.179840338249e+03 
       3.844241605221e-02       4.159679039735e+03 
       3.862978230205e-02       4.139534393517e+03 
       3.881900769994e-02       4.119362016775e+03 
       3.901016557640e-02       4.099230765122e+03 
       3.920333323705e-02       4.079087977287e+03 
       3.939859224859e-02       4.058936117903e+03 
       3.959602875058e-02       4.038798302830e+03 
       3.979573379598e-02       4.018655188031e+03 
       3.999780372362e-02       3.998480315731e+03 
       4.020234056615e-02       3.978337713535e+03 
       4.040945249762e-02       3.958174880677e+03 
       4.061925432541e-02       3.937988738823e+03 
       4.083186803157e-02       3.917807924930e+03 
       4.104742336992e-02       3.897604439528e+03 
       4.126605852553e-02       3.877395977350e+03 
       4.148792084466e-02       3.857156236713e+03 
       4.171316764413e-02       3.836889130337e+03 
       4.194196711067e-02       3.816597130307e+03 
       4.217449930223e-02       3.796286147033e+03 
       4.241095726528e-02       3.775924911618e+03 
       4.265154828431e-02       3.755539942603e+03 
       4.289649528238e-02       3.735112549905e+03 
       4.314603839480e-02       3.714628261779e+03 
       4.340043674179e-02       3.694113769365e+03 
       4.365997043041e-02       3.673496591907e+03 
       4.392494282161e-02       3.652867823637e+03 
       4.419568310462e-02       3.632159969354e+03 
       4.447254922910e-02       3.611344511491e+03 
       4.475593125466e-02       3.590495782767e+03 
       4.504625518961e-02       3.569516559072e+03 
       4.534398740464e-02       3.548444757801e+03 
       4.564963972515e-02       3.527263761034e+03 
       4.596377532751e-02       3.505997914011e+03 
       4.628701559154e-02       3.484527903451e+03 
       4.662004809513e-02       3.463025070357e+03 
       4.696363597875e-02       3.441305071438e+03 
       4.731862896028e-02       3.419393777197e+03 
       4.768597634693e-02       3.397345326368e+03 
       4.806674247450e-02       3.375064196207e+03 
       4.846212511102e-02       3.352565612891e+03 
       4.887347749634e-02       3.329793058547e+03 
       4.930233486194e-02       3.306733487686e+03 
       4.975044649438e-02       3.283399965872e+03 
       5.021981468560e-02       3.259673606550e+03 
       5.071274226732e-02       3.235586158396e+03 
       5.123189087248e-02       3.211084140414e+03 
       5.178035261792e-02       3.186031011894e+03 
       5.236173856606e-02       3.160448089504e+03 
       5.298028808294e-02       3.134163961614e+03 
       5.364100399446e-02       3.107090874931e+03 
       5.434981906601e-02       3.079142788577e+03 
       5.511379937008e-02       3.050100334855e+03 
       5.594138867535e-02       3.019709224188e+03 
       5.684269333237e-02       2.987741183171e+03 
       5.782979594177e-02       2.953741340613e+03 
       5.891706257277e-02       2.917236293227e+03 
